time (s)	magX	magY	magZ
4506.293302	158.858551	-372.385132	683.594360
4506.296636	158.157211	-370.807129	697.621277
4506.299964	157.280533	-368.118652	711.355957
4506.303340	156.579193	-365.956177	724.798340
4506.306636	155.234955	-363.267700	739.643433
4506.309967	152.955566	-360.111633	754.079468
4506.313299	151.143768	-357.481567	767.463440
4506.316635	148.864410	-353.741089	782.016357
4506.319968	146.234360	-350.409729	795.341858
4506.323299	143.779648	-345.909424	809.544067
4506.326629	141.500290	-342.344238	822.986511
4506.329963	138.519577	-337.317932	836.136719
4506.333298	135.012863	-332.466980	849.286926
4506.336666	131.681473	-327.090027	860.859131
4506.339965	127.765633	-321.771484	873.833923
4506.343298	123.616013	-316.452942	886.049072
4506.346665	119.524841	-309.673279	898.907104
4506.349956	115.199883	-303.185852	909.544067
4506.353290	110.991821	-296.581543	920.824036
4506.356628	106.433083	-289.334290	931.753357
4506.359964	101.757454	-281.853271	942.215088
4506.363289	97.374046	-274.138550	952.092285
4506.366627	92.347748	-265.079468	963.547607
4506.369957	87.672119	-256.429565	972.080627
4506.373290	83.230278	-246.493881	980.964294
4506.376623	77.970192	-237.610184	989.672668
4506.379959	73.586792	-227.382233	996.101685
4506.383730	68.560486	-217.154297	1003.874878
4506.387073	64.001755	-205.932785	1010.070129
4506.390425	59.326122	-194.009933	1017.609619
4506.393750	54.182934	-182.496201	1023.044922
4506.397055	49.448860	-170.690247	1027.895996
4506.400389	44.013443	-157.306259	1031.987061
4506.403709	39.746933	-144.214493	1035.552368
4506.407047	34.720631	-131.239624	1038.533081
4506.410386	29.051432	-117.212738	1041.338379
4506.413726	23.323786	-103.536530	1041.630615
4506.417071	18.122150	-88.632957	1042.916382
4506.420397	12.511395	-74.196960	1042.507324
4506.423729	6.725306	-60.228516	1042.448853
4506.427078	1.406778	-44.974285	1041.279907
4506.430383	-4.262423	-30.304501	1038.006958
4506.433746	-10.106955	-15.517826	1035.610840
4506.437040	-15.893045	-0.789597	1032.571655
4506.440384	-21.386908	13.061953	1028.188110
4506.443722	-27.699011	28.199299	1023.512573
4506.447044	-34.537109	42.109291	1018.252502
4506.450409	-40.381645	57.012856	1011.239075
4506.453727	-46.401520	70.630623	1005.219177
4506.457057	-52.421387	84.540619	997.738159
4506.460810	-58.967270	97.749268	990.783142
4506.464152	-65.571594	111.133255	983.009888
4506.467464	-71.416130	123.932785	974.418457
4506.470815	-76.968437	137.141434	965.417847
4506.474164	-83.338982	149.765625	955.365295
4506.477530	-89.592636	160.870255	944.494446
4506.480876	-94.794273	173.085327	934.441833
4506.484164	-100.288124	184.715958	924.096985
4506.487459	-106.191109	195.236115	913.109314
4506.490793	-111.100517	206.399185	902.121582
4506.494169	-115.717705	216.627121	890.783142
4506.497484	-119.984230	227.147293	878.743347
4506.500871	-124.484505	237.842789	866.060730
4506.504198	-128.867920	247.252487	854.371643
4506.507536	-132.783752	256.662201	842.624207
4506.510794	-136.115143	264.669189	828.889465
4506.514127	-139.504974	273.669800	815.447021
4506.517469	-142.485687	282.436584	803.641113
4506.520800	-144.998840	291.437195	790.140259
4506.524144	-147.745773	299.444214	776.347107
4506.527558	-150.258926	306.866760	763.547607
4506.530909	-152.246063	314.230896	749.754456
4506.534554	-154.116318	321.828796	736.195190
4506.537924	-156.161896	328.374634	723.454102
4506.541286	-157.213913	334.745178	709.076538
4506.544615	-158.616608	340.823486	695.634094
4506.547950	-159.434845	346.784912	682.074768
4506.551311	-160.603745	352.103455	668.281677
4506.554643	-161.538879	356.895996	653.962585
4506.557915	-162.357117	361.104004	641.104614
4506.561290	-163.409119	365.370544	627.486816
4506.564619	-163.935135	369.169495	613.985901
4506.567951	-164.519577	372.617737	600.309753
4506.571325	-164.694931	374.838684	587.393311
4506.574641	-165.337830	377.293396	574.827576
4506.577904	-165.337830	380.215637	561.677368
4506.581319	-165.863831	381.209229	549.579163
4506.584645	-166.331390	383.839294	536.604309
4506.587941	-166.915848	384.131470	526.200989
4506.591220	-167.383408	385.475769	513.927490
4506.594578	-167.441849	385.417297	502.589111
4506.597982	-167.208069	386.118652	490.315613
4506.601302	-167.967865	386.294006	479.561646
4506.604629	-168.026306	385.826416	467.580353
4506.607962	-167.967865	385.475769	457.293976
4506.611291	-167.734085	384.189941	446.247803
4506.615076	-167.266525	383.430176	435.902954
4506.618342	-167.617187	383.254822	426.610168
4506.621717	-167.149628	381.326111	416.499115
4506.624979	-167.032745	379.981873	407.440094
4506.628290	-166.623611	377.702515	396.978394
4506.631556	-166.740509	376.182922	388.094666
4506.634909	-165.922272	375.014038	378.275848
4506.638186	-165.396271	372.851562	370.736420
4506.641499	-164.519577	371.098206	361.677399
4506.644806	-163.876694	369.111084	352.735260
4506.648520	-162.532440	367.591492	344.552917
4506.651850	-161.655762	365.838135	336.604309
4506.655116	-161.071304	363.441833	329.766205
4506.658451	-159.434845	361.513184	320.882538
4506.661746	-157.856827	359.584473	313.635315
4506.665101	-156.571014	357.831116	306.446533
4506.668350	-155.051437	356.019287	298.848633
4506.671625	-153.707199	353.038574	291.542969
4506.674953	-152.304504	350.583862	284.471069
4506.678649	-150.258926	348.655151	277.691437
4506.681907	-148.973114	346.317383	270.736420
4506.685257	-147.336655	344.505554	264.716553
4506.688596	-146.985977	341.817078	258.346008
4506.691879	-144.765060	338.602539	252.267670
4506.695201	-143.245483	336.440063	245.955582
4506.698482	-141.725891	333.517822	239.935715
4506.701842	-140.264755	331.647583	234.617187
4506.705140	-138.686737	328.959106	228.947968
4506.708910	-137.225601	325.686157	223.512558
4506.712195	-135.881363	323.523682	218.194031
4506.715482	-134.537125	321.068970	213.109283
4506.718764	-133.192871	318.322021	207.849213
4506.722100	-132.725311	315.692017	203.290466
4506.725395	-131.147293	312.652832	198.497940
4506.728740	-130.212158	310.431885	194.348328
4506.732099	-129.160156	307.626526	189.906479
4506.735379	-128.049683	304.996460	185.756866
4506.738681	-127.465233	303.067810	181.081238
4506.742421	-126.588554	299.327271	178.451187
4506.745750	-125.828758	296.638794	174.418457
4506.749052	-124.835182	294.476318	171.262421
4506.752349	-123.490944	292.313843	167.521912
4506.755612	-123.023384	290.034485	164.307419
4506.758931	-122.088249	287.521362	161.560486
4506.762203	-122.146690	285.008179	158.404434
4506.765525	-121.386909	282.904114	155.248398
4506.768834	-119.750450	281.209229	152.150787
4506.772172	-119.107536	279.163635	149.053177
4506.775887	-118.172417	276.592041	146.890701
4506.779192	-117.587959	274.429565	143.500870
4506.782546	-116.886620	272.208618	141.104614
4506.785863	-116.009926	271.215088	138.123886
4506.789153	-115.074806	268.643494	135.786087
4506.792431	-114.373466	266.597900	133.682053
4506.795723	-113.496788	265.078308	131.636459
4506.799449	-112.386330	262.974304	129.006424
4506.802755	-111.918755	261.863831	126.142601
4506.806039	-111.334297	259.818237	124.506134
4506.809308	-109.814735	258.590881	122.051437
4506.812625	-108.762703	256.662201	119.479843
4506.815894	-107.593803	255.142609	118.194038
4506.819159	-106.600227	254.032150	115.856224
4506.822472	-106.074226	252.629471	113.693748
4506.826203	-104.320869	250.817657	111.823494
4506.829910	-103.911751	249.356522	109.719460
4506.833247	-102.801292	248.772064	108.784340
4506.836579	-102.099953	246.960251	106.446526
4506.839911	-100.697258	245.499130	105.511398
4506.843250	-100.171242	244.096436	103.524254
4506.846582	-99.353004	242.927521	102.296906
4506.849917	-98.768562	241.232605	101.011101
4506.853241	-98.300995	240.063705	99.140854
4506.856606	-97.599655	239.245483	98.205727
4506.859909	-97.599655	237.608994	96.978371
4506.863248	-97.015190	236.673874	95.575684
4506.866580	-96.489182	235.680313	94.289886
4506.869911	-96.664528	234.628296	93.179428
4506.873238	-96.606079	233.693161	92.594978
4506.876576	-95.846283	232.874939	91.542961
4506.879925	-95.787834	231.881348	90.607834
4506.883243	-95.437172	231.121567	89.438927
4506.886575	-95.378723	229.952667	89.322037
4506.889906	-95.086494	229.368210	87.860901
4506.893247	-95.554054	228.023956	86.867325
4506.896580	-94.502045	227.790176	87.510231
4506.899941	-95.495621	227.030396	86.458214
4506.903244	-94.794273	225.978363	85.639977
4506.906578	-94.151367	225.627701	85.289307
4506.909903	-94.034485	225.160141	84.646408
4506.913235	-94.034485	225.218582	84.997078
4506.916575	-93.917587	224.400345	84.120399
4506.919907	-93.800705	223.406784	83.360603
4506.923236	-93.450027	224.283447	83.535950
4506.926567	-93.566917	223.231461	82.893044
4506.929909	-93.274689	223.465225	83.068382
4506.933237	-93.216240	222.822327	83.068382
4506.936569	-92.865578	223.348328	82.834602
4506.939925	-92.105782	222.997665	82.016365
4506.943248	-91.872002	222.354767	81.607246
4506.946571	-91.521339	222.530106	81.490356
4506.949903	-90.936874	222.646988	81.607246
4506.953237	-90.936874	222.530106	81.081245
4506.956567	-90.761543	222.471664	81.022797
4506.959902	-89.943306	222.237869	80.847458
4506.963241	-89.826416	222.939224	81.022797
4506.967018	-89.183510	223.114563	80.789009
4506.970323	-89.241959	223.172989	80.379898
4506.973660	-89.241959	223.172989	80.613678
4506.977011	-89.417290	223.815887	81.490356
4506.980337	-88.832848	223.640549	81.256577
4506.983681	-89.125076	224.867905	82.133255
4506.987019	-89.066628	225.043243	82.425484
4506.990320	-88.715950	224.984802	82.250145
4506.993664	-89.241959	225.277039	82.542374
4506.997000	-89.417290	225.686142	82.542374
4507.000314	-89.125076	226.212158	82.308594
4507.003655	-89.534187	226.738159	83.009933
4507.006984	-89.475739	227.673294	84.237289
4507.010352	-90.352432	227.556396	84.178841
4507.013667	-90.352432	228.491516	85.639977
4507.017008	-90.761543	229.017532	85.698418
4507.020348	-91.053772	229.894211	87.393341
4507.023670	-91.287560	230.537125	87.101112
4507.026991	-92.631798	230.770889	88.737579
4507.030357	-93.274689	231.706024	89.672707
4507.033647	-93.800705	233.108704	90.666275
4507.036992	-94.034485	234.219162	91.192291
4507.040319	-94.735825	235.329620	92.945648
4507.044140	-95.612503	235.563416	94.348335
4507.047038	-95.846283	236.907639	94.757454
4507.050815	-96.080070	237.199875	95.751022
4507.054107	-96.722961	238.018127	96.861481
4507.057407	-97.190529	239.537689	98.030396
4507.060741	-97.248970	240.765045	99.491531
4507.064090	-97.541206	241.583298	100.426659
4507.067432	-98.125648	243.628876	101.537117
4507.070814	-98.008766	244.680878	102.063126
4507.074173	-98.300995	246.609589	104.108711
4507.077413	-99.002342	247.836945	105.628281
4507.080747	-99.645241	249.064301	106.797188
4507.084073	-99.937462	250.992981	108.784340
4507.087420	-100.288124	252.220337	110.537704
4507.090755	-99.820564	253.973694	112.349503
4507.094140	-100.054344	255.317947	112.933952
4507.097492	-100.171242	257.246643	115.680893
4507.100751	-100.872597	258.415558	117.083580
4507.104070	-100.814140	260.052002	119.070717
4507.107394	-101.281700	262.039154	121.934540
4507.110760	-101.281700	263.734070	123.629456
4507.114095	-102.450615	265.078308	125.791939
4507.117513	-103.151955	267.533020	127.369957
4507.120813	-103.385735	269.227936	130.467560
4507.124114	-103.444191	270.981323	132.922256
4507.127844	-104.145531	272.909973	134.500290
4507.131200	-104.554649	275.189392	137.130325
4507.134561	-105.314430	276.942749	139.760361
4507.137889	-105.665108	279.163635	141.747513
4507.140836	-106.892464	281.618347	144.786667
4507.144590	-107.769127	283.722412	148.468719
4507.147916	-108.528923	285.709534	151.215652
4507.151230	-108.762703	288.222656	154.254822
4507.154599	-110.223839	290.385132	158.112198
4507.157932	-110.866737	293.307434	161.092926
4507.161291	-112.094093	294.943909	164.774979
4507.164564	-113.146111	297.924622	168.515472
4507.167863	-114.081245	300.437744	172.255981
4507.171245	-115.250145	302.249573	176.697830
4507.174539	-116.185280	304.879639	180.321442
4507.177891	-117.003502	307.392761	184.587952
4507.181228	-118.639977	309.263000	188.854462
4507.184575	-119.399757	312.009949	192.770294
4507.187860	-120.101112	314.639954	197.212143
4507.191226	-121.094688	316.977783	201.478668
4507.194556	-122.438927	320.601440	206.504959
4507.197880	-122.497368	322.763916	211.531250
4507.201174	-123.607826	325.627686	215.505554
4507.204505	-124.484505	328.433105	220.707184
4507.207826	-124.835182	331.063110	226.025696
4507.211334	-125.536522	334.102295	231.110458
4507.214615	-126.062538	337.083008	236.779663
4507.217889	-126.354774	340.589722	241.630630
4507.221596	-126.354774	342.459961	247.650482
4507.225019	-127.056114	346.025146	252.793686
4507.228294	-127.699013	348.655151	259.339600
4507.231570	-127.815895	351.635864	265.534760
4507.234854	-128.166580	354.324341	271.554657
4507.238158	-128.575699	357.363525	277.925201
4507.241478	-128.867920	359.818237	284.587982
4507.244844	-129.452362	362.389832	290.958527
4507.248110	-129.861496	365.195190	297.621277
4507.251427	-129.277039	368.292786	305.628296
4507.255141	-130.212158	370.922852	313.576843
4507.258427	-130.212158	373.026917	320.590302
4507.261773	-130.504395	375.715393	327.954437
4507.265065	-131.147293	378.520752	335.961426
4507.268350	-131.381073	381.150818	344.377563
4507.271632	-131.790176	383.254822	351.975464
4507.274911	-132.316193	385.358826	361.911163
4507.278212	-132.842209	387.170654	370.677948
4507.281935	-133.309769	389.040894	379.269440
4507.285255	-133.952667	391.261841	389.438934
4507.288544	-134.595566	393.073669	399.023956
4507.291861	-134.770905	394.125671	408.725922
4507.295167	-135.472244	395.469910	418.544708
4507.298476	-135.706024	396.638794	428.772675
4507.301830	-135.881363	397.983032	439.175934
4507.305118	-136.115143	398.976624	449.988312
4507.308403	-136.056702	399.035095	460.333160
4507.311710	-136.641159	399.619507	471.554657
4507.315383	-136.641159	399.794861	483.009949
4507.318748	-135.939804	400.437744	494.465240
4507.322032	-135.881363	400.145508	506.095886
4507.325332	-135.238464	399.619507	517.200439
4507.328683	-134.537125	398.801270	529.883118
4507.331980	-133.952667	398.216858	542.390381
4507.335299	-133.192871	397.106384	553.085937
4507.338602	-131.556396	395.937439	565.885437
4507.341870	-130.036835	394.301025	578.801819
4507.345625	-128.926376	392.781433	590.432434
4507.348903	-127.056114	391.261841	603.641113
4507.352170	-125.010521	389.566895	616.557556
4507.355503	-123.023384	386.352417	629.181702
4507.358785	-120.568672	383.897705	641.689087
4507.362076	-117.763298	379.864990	653.904114
4507.365347	-115.367027	376.416748	667.171204
4507.369064	-112.035652	373.552917	679.853882
4507.372412	-108.821159	368.994141	692.361145
4507.375692	-105.957329	364.727661	705.862061
4507.378944	-102.392159	359.876648	718.661621
4507.382231	-99.060791	354.558167	732.045532
4507.385505	-95.554054	349.122742	745.137329
4507.388823	-91.638222	343.336670	757.527710
4507.392179	-87.605492	336.498535	770.677979
4507.395547	-83.923439	329.426636	784.120361
4507.398847	-80.007591	322.179443	796.744568
4507.402546	-76.559319	314.230896	809.485657
4507.405872	-72.234367	305.931641	821.992981
4507.409123	-68.026299	296.755676	835.318481
4507.412473	-64.168907	287.930481	847.884277
4507.415737	-60.019287	278.228516	860.976013
4507.418992	-56.103447	268.292786	872.781982
4507.422711	-51.486259	258.064880	884.587952
4507.425998	-47.161308	247.544708	896.218567
4507.429340	-42.485680	236.264755	907.907593
4507.432636	-38.628288	224.108124	919.538208
4507.435903	-33.894218	213.061951	929.473999
4507.439198	-29.043249	200.379303	939.935669
4507.442470	-23.958502	187.813568	950.280457
4507.445772	-19.224432	174.838699	960.157776
4507.449515	-14.315023	161.922272	969.567505
4507.453215	-8.996492	148.830505	977.808289
4507.456515	-3.911749	134.920502	985.639954
4507.459855	1.640560	121.945648	993.296265
4507.463187	7.017532	107.918762	1000.777344
4507.466517	12.394505	94.242554	1006.504944
4507.469853	18.063705	81.443008	1012.524780
4507.473183	24.317356	67.357681	1017.667969
4507.476511	30.746346	53.798363	1022.285156
4507.479847	37.701344	40.122150	1025.967285
4507.483182	44.364113	26.621273	1028.772705
4507.486520	50.793102	12.886616	1032.571655
4507.489845	57.222092	-0.263588	1034.032715
4507.493184	63.651077	-13.998249	1035.260010
4507.496534	71.073639	-26.797779	1036.312134
4507.499844	76.742836	-39.831093	1036.136719
4507.503179	84.165405	-52.221504	1035.552368
4507.506515	90.828171	-65.137932	1033.682129
4507.509848	96.848045	-78.521919	1032.571655
4507.513179	103.452370	-90.327873	1029.357056
4507.516517	109.530685	-102.542953	1026.785522
4507.519847	114.966103	-114.524246	1022.752808
4507.523186	121.278198	-126.096436	1019.246033
4507.526545	126.479836	-138.779068	1013.869080
4507.529842	132.382812	-149.708359	1007.030945
4507.533173	136.298645	-161.163651	1002.296814
4507.536511	141.617187	-172.209824	994.932739
4507.539846	146.175919	-182.729996	988.036255
4507.543182	150.208649	-193.542374	980.204468
4507.546508	154.708939	-204.120972	972.139099
4507.549843	158.332550	-213.998245	963.489136
4507.553171	162.014603	-223.466400	953.378113
4507.556532	165.112213	-233.109879	943.442444
4507.559840	167.508469	-242.519577	933.331421
4507.563171	170.839844	-251.578598	923.337158
4507.566506	172.768555	-260.053162	912.641724
4507.569846	175.515488	-268.235535	901.537048
4507.573177	177.794846	-275.950317	890.666321
4507.576510	179.957336	-283.957336	878.977234
4507.579843	181.009338	-290.737000	867.638794
4507.583645	182.996490	-297.399780	853.904175
4507.586924	184.457626	-304.179443	841.513733
4507.590273	185.801865	-309.673279	829.473999
4507.593600	187.321442	-315.517822	816.440674
4507.596930	188.081238	-320.368774	803.524231
4507.600282	189.425476	-325.979553	790.198730
4507.603603	190.769714	-329.369385	777.749817
4507.606951	191.529495	-333.051453	764.365845
4507.610269	193.165985	-337.376404	751.566345
4507.613613	194.393326	-340.824646	738.591431
4507.616985	195.445343	-343.279358	725.441223
4507.620263	195.445343	-346.493896	713.343079
4507.623601	196.322021	-348.597900	699.842163
4507.626926	197.374054	-351.111023	686.224426
4507.630260	197.958496	-352.104614	673.600220
4507.633597	198.718292	-353.916382	660.040894
4507.636957	199.361176	-354.734680	647.592041
4507.640276	199.478073	-356.195801	635.610718
4507.643609	200.004074	-356.838684	623.103455
4507.646944	199.945648	-357.364685	611.005249
4507.650266	200.588531	-358.007629	598.614868
4507.653586	200.296310	-357.949158	586.341309
4507.656929	199.887192	-358.241394	575.236633
4507.660254	199.887192	-358.650513	562.495544
4507.664032	199.419632	-358.358276	551.215637
4507.667363	199.068954	-357.890686	539.234375
4507.670796	197.783157	-357.189392	527.779053
4507.674107	197.257156	-356.546448	517.492676
4507.677414	196.438919	-356.371094	506.621887
4507.680708	195.679123	-356.254272	495.517242
4507.684012	194.042664	-354.676208	484.763336
4507.687358	192.639969	-354.208618	472.665100
4507.690696	191.997070	-352.922852	463.196991
4507.694096	190.302155	-352.747498	453.495056
4507.697427	188.782578	-351.403259	443.793091
4507.700722	186.620087	-350.351257	434.967834
4507.704017	185.451187	-349.299255	424.856781
4507.707337	184.106949	-347.487427	415.680878
4507.710695	182.119797	-346.552307	407.031006
4507.714030	180.600235	-345.266541	398.439545
4507.717408	178.554642	-343.863831	389.438934
4507.720757	176.567490	-342.402649	381.139709
4507.724066	175.749268	-340.298645	373.191132
4507.727347	173.878998	-338.779053	365.826996
4507.730681	172.710098	-336.733459	357.235535
4507.734038	170.898300	-334.629456	349.988312
4507.737353	169.729385	-332.700745	342.916443
4507.740773	168.385147	-331.005859	335.435425
4507.744077	166.982468	-329.018677	328.714203
4507.747421	165.053757	-327.148437	323.045013
4507.751092	164.469299	-324.635315	314.862671
4507.754450	163.183517	-322.648132	308.375244
4507.757834	161.897705	-320.251892	303.348938
