time (s)	magX	magY	magZ
3765.694463	140.623611	-276.067200	171.729980
3765.697811	141.500290	-278.580383	175.353592
3765.701142	142.902969	-280.216858	179.912323
3765.704477	143.838104	-283.080627	182.133240
3765.707802	145.240784	-284.307983	186.458206
3765.711146	145.825241	-287.288696	190.549377
3765.714460	147.169495	-289.801880	194.114548
3765.717799	148.630630	-292.022827	198.848633
3765.721126	149.916412	-294.769714	203.056686
3765.724450	151.026886	-296.990662	207.089417
3765.727792	152.955566	-300.205139	212.641708
3765.731176	153.773819	-302.835205	217.843369
3765.734474	154.884277	-305.348328	223.161880
3765.737810	155.760956	-308.621277	228.889542
3765.741129	157.163651	-311.485107	234.500290
3765.744885	159.033890	-314.524231	239.701920
3765.748210	158.975449	-317.621826	247.066040
3765.751543	160.962585	-321.070129	253.495026
3765.754911	162.073059	-323.992371	260.450043
3765.758226	163.475739	-327.206909	268.223267
3765.761617	164.761536	-330.246033	275.470490
3765.765000	165.696655	-334.044983	284.412628
3765.768223	166.865570	-337.259460	292.536530
3765.771545	168.209824	-340.941528	301.478699
3765.774901	170.021622	-343.630005	310.479248
3765.778229	171.424301	-347.019897	318.252472
3765.781553	172.885437	-350.701904	328.597321
3765.784943	173.937454	-353.565735	337.597900
3765.788297	175.106354	-356.429565	346.773834
3765.791592	176.392166	-359.176514	356.475739
3765.794874	178.320862	-362.566345	367.229706
3765.798229	179.314423	-365.605530	377.399200
3765.801560	180.600235	-368.644653	387.334900
3765.804894	181.886017	-371.216248	397.562836
3765.808322	183.113373	-373.612488	408.784332
3765.811626	184.574509	-376.125671	419.304504
3765.814940	186.035645	-378.463440	430.350677
3765.818233	186.736984	-381.327271	441.279968
3765.821976	187.905899	-383.314453	452.443024
3765.825372	188.782578	-385.944519	463.722992
3765.828696	190.243713	-387.756287	475.938080
3765.832071	190.828156	-390.386353	488.094696
3765.835361	192.055511	-392.022766	500.192871
3765.838676	192.639969	-393.776184	512.583252
3765.842018	193.925766	-395.178833	526.025696
3765.845388	194.159546	-397.516663	539.351257
3765.848720	195.036240	-399.737549	551.975464
3765.852093	194.977783	-400.789551	565.417847
3765.855366	195.153122	-402.250732	579.970764
3765.858680	194.568665	-402.835205	594.056091
3765.862012	195.036240	-403.478088	609.485657
3765.865359	194.568665	-404.822327	624.389221
3765.868708	194.510223	-405.289856	640.753967
3765.872035	193.750427	-405.640564	656.767944
3765.875329	192.756851	-405.523682	673.307983
3765.878646	191.646393	-405.698975	689.322021
3765.881978	190.243713	-404.880798	707.206299
3765.885406	188.665695	-403.478088	724.681458
3765.888718	186.269424	-402.367615	741.864380
3765.892026	185.158966	-400.029846	759.807129
3765.895344	182.587357	-397.867310	777.574524
3765.899139	179.898880	-395.587952	795.341858
3765.902063	177.385742	-392.198120	812.992371
3765.905392	174.989471	-388.808289	830.292236
3765.909127	171.307404	-385.009338	848.176514
3765.912438	168.618927	-380.275269	864.950256
3765.915725	165.521332	-376.359436	882.893005
3765.919055	161.956161	-370.631775	899.549988
3765.922335	157.806549	-364.319702	916.206848
3765.925697	154.241379	-358.241394	932.571594
3765.928963	149.448853	-351.461731	948.760925
3765.932302	145.416122	-344.798950	964.716553
3765.935571	140.623611	-336.499695	979.795471
3765.939374	136.240204	-328.317383	992.419617
3765.942245	131.447693	-320.544128	1006.914062
3765.945959	126.772064	-311.017517	1020.356445
3765.949253	122.330215	-302.075378	1032.454712
3765.952534	116.310341	-292.256592	1043.909912
3765.955954	111.634720	-282.145508	1054.956177
3765.959234	105.673294	-271.040894	1065.242432
3765.962537	100.179428	-260.111633	1075.996460
3765.965833	94.451782	-249.649918	1085.464600
3765.969105	88.899467	-237.727066	1093.880737
3765.972443	82.178253	-225.395096	1100.835693
3765.976212	76.041496	-213.881348	1107.849243
3765.979459	68.911163	-201.783157	1114.278076
3765.982752	62.073059	-188.691406	1119.830566
3765.986043	55.702515	-175.015198	1124.856812
3765.989348	47.870834	-160.812973	1128.655762
3765.992680	40.565166	-146.902985	1130.876587
3765.996049	33.727058	-132.116318	1133.682129
3765.999323	24.843365	-117.972534	1135.610840
3766.002630	16.661016	-102.192291	1135.435425
3766.006345	8.127993	-86.470490	1136.312134
3766.009615	0.004091	-70.982468	1134.383423
3766.012973	-8.470488	-54.851547	1132.746948
3766.016275	-17.120398	-37.902397	1130.642944
3766.019577	-26.354765	-21.128578	1126.843994
3766.022892	-34.537109	-4.354763	1122.051392
3766.026179	-43.771477	12.828171	1116.732910
3766.029509	-52.830505	29.894215	1109.251831
3766.032874	-61.012856	46.609585	1101.712402
3766.036160	-69.428986	63.909409	1092.185791
3766.039865	-77.552895	80.741669	1083.536011
3766.043219	-85.209229	96.697250	1073.600220
3766.046466	-93.450027	112.945061	1062.554077
3766.049821	-100.755699	129.309753	1050.923462
3766.053091	-108.002922	145.674469	1039.175903
3766.056343	-115.250145	160.987152	1027.136108
3766.059651	-121.620689	175.832260	1013.635254
3766.062924	-127.991234	190.385162	1000.368225
3766.066730	-133.660431	204.996490	987.393311
3766.070016	-139.154297	218.088257	973.015808
3766.073344	-145.174179	231.472244	959.222595
3766.076662	-150.142029	243.804214	943.267090
3766.079954	-154.817657	256.194641	929.064880
3766.083279	-158.616608	266.597900	914.921082
3766.086568	-162.766235	277.644043	900.368225
3766.089911	-166.798965	288.047363	884.997070
3766.093197	-170.890121	298.158386	870.093445
3766.096520	-173.870850	307.392761	856.008179
3766.099839	-177.026886	316.451782	840.578552
3766.103574	-180.124496	324.984802	824.973694
3766.107327	-182.403870	333.108704	809.777832
3766.110670	-185.150787	340.472839	795.458740
3766.113994	-186.962601	347.603149	779.620056
3766.117324	-189.475754	354.149048	763.722961
3766.120661	-191.521332	360.694885	749.111633
3766.123994	-193.450043	365.955017	733.331360
3766.127322	-195.203400	371.331970	717.609558
3766.130653	-196.606079	376.475159	703.699524
3766.133987	-198.417908	381.326111	687.802429
3766.137323	-199.645248	385.358826	672.840393
3766.140658	-200.814148	389.099365	658.229065
3766.143992	-201.924606	392.021606	642.215088
3766.147321	-202.625961	394.768555	626.960815
3766.150660	-203.619522	397.632385	612.407959
3766.154012	-204.262421	399.268860	597.095276
3766.157330	-205.256012	401.489807	581.315002
3766.160655	-205.489777	403.126221	567.521912
3766.163984	-205.782013	403.769104	552.326111
3766.167327	-205.665115	404.412048	537.948547
3766.170658	-205.606674	404.762695	523.161865
3766.173990	-205.372879	405.288696	509.777924
3766.177320	-204.729980	405.113403	495.809509
3766.180648	-204.145523	404.528931	483.009949
3766.184010	-203.268860	403.418457	467.931030
3766.187316	-202.859741	402.775574	455.832855
3766.190655	-201.924606	402.132690	443.617767
3766.193982	-200.346588	400.379333	431.227325
3766.197336	-199.236130	398.742859	419.421387
3766.200654	-198.359436	396.931030	408.667450
3766.203982	-197.073654	394.943909	397.562836
3766.207318	-195.670959	392.956726	386.691986
3766.210654	-194.209839	391.554077	377.399200
3766.213982	-192.924026	388.982483	367.463470
3766.217314	-190.820007	386.527771	357.586212
3766.220651	-189.066620	384.248413	347.942719
3766.223979	-188.131500	381.852112	339.409698
3766.227315	-185.852142	379.280518	330.818237
3766.230646	-184.683228	376.650513	322.168335
3766.233983	-182.812973	373.845093	314.336639
3766.237313	-181.351852	371.039734	306.855652
3766.240651	-179.656937	368.585022	299.433075
3766.243980	-177.903580	365.838135	291.776733
3766.247754	-175.858002	362.798950	284.003510
3766.251094	-174.572174	360.168884	277.516083
3766.254032	-173.169495	357.012878	270.794861
3766.257764	-171.065460	354.207458	264.190552
3766.261075	-170.013443	351.285217	257.586212
3766.264407	-168.084747	347.895386	250.981873
3766.267735	-166.857391	344.797791	244.845108
3766.271105	-164.928711	341.583313	239.059021
3766.274403	-163.759796	338.602539	232.513138
3766.277730	-161.947983	335.388062	226.317932
3766.281091	-160.603745	332.115173	220.356506
3766.284434	-159.434845	328.491516	214.511963
3766.287749	-157.506149	325.452393	208.959671
3766.291079	-156.103455	322.530090	203.582687
3766.294404	-154.700760	318.146729	198.614838
3766.297728	-153.064301	315.750427	193.004089
3766.301099	-151.135605	312.009949	187.510208
3766.304402	-150.200470	309.087708	182.542374
3766.307739	-148.213333	306.048523	177.925186
3766.311071	-146.752197	303.184692	172.489761
3766.314443	-145.466400	299.970215	167.989471
3766.317745	-143.596146	296.814148	163.138504
3766.321077	-142.602570	294.301025	159.047333
3766.324437	-140.790771	290.911194	154.021042
3766.328171	-139.914093	288.339539	150.689651
3766.331482	-138.043839	285.768005	147.007599
3766.334823	-136.232040	283.021057	143.617767
3766.338185	-134.478668	280.332581	140.169495
3766.341501	-133.075989	277.819397	136.662766
3766.344913	-132.199310	275.247803	133.331375
3766.348220	-130.504395	272.968445	130.467560
3766.351512	-129.277039	270.338379	127.895973
3766.354820	-128.458801	267.766785	125.675041
3766.358150	-127.289894	265.896545	123.571007
3766.361493	-125.653419	264.026306	119.830505
3766.364844	-124.893639	262.214478	118.369370
3766.368225	-123.783165	260.052002	116.031555
3766.371568	-122.146690	258.181763	113.810638
3766.374819	-120.977791	257.305115	111.648163
3766.378157	-120.685570	255.142609	109.953239
3766.381488	-119.165977	252.629471	107.673882
3766.384830	-118.756874	250.992981	105.978958
3766.388167	-117.471062	249.473404	103.816483
3766.391564	-116.945061	247.953842	102.180008
3766.394886	-116.477486	245.849792	101.069550
3766.398217	-114.899467	244.037979	99.199303
3766.401904	-114.022789	242.635300	97.387497
3766.405254	-113.672112	240.472809	95.751022
3766.408642	-112.795433	238.661026	93.237869
3766.411999	-111.860313	237.725891	92.127411
3766.415343	-111.509651	236.030975	90.724724
3766.418671	-111.042091	234.686722	89.964935
3766.421962	-110.399178	233.400940	86.633545
3766.425255	-109.580956	231.472244	85.932205
3766.428636	-108.938057	230.069565	84.880188
3766.432012	-108.002922	228.842209	83.769730
3766.435323	-107.301567	227.322617	81.431915
3766.438641	-106.600227	225.861465	79.737000
3766.441936	-106.074226	224.575684	78.860313
3766.445310	-105.840446	223.523666	77.574516
3766.448629	-104.788429	222.471664	76.639389
3766.451979	-104.145531	221.302750	75.762711
3766.455326	-103.911751	219.432495	74.067795
3766.458656	-103.093513	218.438919	73.249565
3766.461941	-102.625938	217.562241	71.437759
3766.465312	-101.749260	216.510239	70.736412
3766.468643	-101.807716	216.101105	70.385735
3766.471964	-101.106377	214.990646	69.158386
3766.475321	-101.164818	214.873764	69.041496
3766.479102	-100.405022	213.178848	68.340157
3766.482382	-99.353004	212.652832	67.931030
3766.485670	-99.119225	211.834610	66.995911
3766.489038	-99.060791	211.659256	66.294563
3766.492337	-98.417877	211.425476	65.710114
3766.495643	-98.768562	211.717712	65.184105
3766.498927	-98.476326	210.548798	65.476326
3766.502267	-98.359428	210.431915	65.008766
3766.505548	-97.833435	210.315018	64.541206
3766.508854	-97.774986	210.081238	64.891876
3766.512198	-97.248970	209.613678	64.658096
3766.515969	-97.541206	209.204559	64.891876
3766.519301	-97.015190	209.379898	64.950325
3766.522595	-97.248970	209.321442	65.008766
3766.525897	-97.307419	209.321442	65.300995
3766.529200	-97.424309	209.204559	65.008766
3766.532503	-96.956741	209.321442	64.716545
3766.535806	-97.599655	209.263000	65.417885
3766.539140	-97.716537	209.204559	65.125656
3766.542473	-97.774986	209.087662	64.599655
3766.545770	-98.067215	209.029221	64.891876
3766.549077	-97.541206	208.970779	65.359436
3766.552802	-98.184097	209.087662	64.599655
3766.556170	-98.067215	209.146118	65.008766
3766.559437	-98.417877	209.555222	64.891876
3766.562717	-98.300995	209.438339	65.359436
3766.566046	-98.534775	209.730576	64.891876
3766.569328	-98.359428	209.438339	65.417885
3766.572632	-98.651665	210.022797	65.593216
3766.575912	-99.002342	210.373474	65.943893
3766.579330	-99.119225	210.899475	66.177673
3766.582596	-98.827003	211.133255	66.002342
3766.586315	-99.060791	211.776154	66.762123
3766.589640	-98.943893	212.068390	66.119232
3766.593007	-99.002342	212.477493	66.879021
3766.596294	-99.469902	213.120392	67.346581
3766.599605	-99.294571	213.471069	68.164818
3766.602973	-99.294571	214.756866	68.573936
3766.606244	-99.995918	215.399765	69.392166
3766.609579	-100.288124	216.159561	68.983047
3766.612865	-100.463478	217.036224	70.677963
3766.616210	-101.047920	216.977798	71.671539
3766.619475	-100.638817	218.672699	71.905319
3766.622778	-101.515480	219.958511	73.483345
3766.626549	-101.632378	220.776749	74.301575
3766.629890	-102.859734	222.004105	74.827591
3766.633228	-102.625938	223.172989	76.639389
3766.636482	-102.859734	224.166580	78.158966
3766.639812	-103.502632	226.153702	78.860313
3766.643104	-103.911751	227.205719	80.029228
3766.646431	-104.613091	228.549973	81.022797
3766.649709	-105.080650	229.777328	83.419052
3766.653037	-106.366447	231.822922	85.113968
3766.656416	-106.892464	233.225601	86.165985
3766.659713	-107.418465	235.388077	87.568672
3766.663024	-108.295143	236.498535	88.796028
3766.666814	-108.879601	238.193466	91.016953
3766.670097	-109.580956	239.654587	92.536530
3766.673386	-110.866737	241.291061	94.406776
3766.676683	-111.158974	242.985977	97.329048
3766.679963	-112.386330	244.973099	97.971947
3766.683247	-113.029213	245.499130	98.907074
3766.686542	-113.730568	247.836945	100.835770
3766.689819	-115.016365	249.999420	103.699593
3766.693578	-116.009926	251.226776	105.920509
3766.697271	-116.828163	253.330795	107.966110
3766.700601	-117.880196	254.967285	109.427231
3766.703946	-118.464638	256.428406	111.414383
3766.707269	-119.399757	258.357086	112.466393
3766.710601	-119.750450	260.578033	114.745766
3766.713975	-120.685570	262.623596	117.317360
3766.717264	-122.088249	264.201630	120.239624
3766.720602	-122.497368	265.779663	122.343651
3766.723933	-123.666283	268.351257	124.681465
3766.727292	-124.601402	270.221497	127.253075
3766.730601	-125.302742	273.026886	130.058441
3766.733933	-126.413200	274.780243	132.805374
3766.737263	-127.640556	277.527161	135.902969
3766.740599	-128.225021	279.981873	138.240784
3766.743931	-129.335480	282.319702	141.104614
3766.747265	-130.270615	285.241943	144.728226
3766.750601	-130.913513	288.339539	148.234940
3766.753930	-132.082413	290.735840	151.975433
3766.757287	-132.783752	293.891907	155.131500
3766.760598	-134.244888	296.405029	159.398010
3766.763926	-134.946243	299.736389	164.541199
3766.767278	-136.290482	303.184692	167.697250
3766.770598	-137.400940	306.223816	172.255981
3766.773924	-138.920517	309.263000	177.808289
3766.777258	-139.446533	312.594360	182.659256
3766.780594	-141.024551	315.282837	187.159546
3766.783924	-141.725891	318.906494	192.419632
3766.787255	-144.122162	322.471680	198.439499
3766.790596	-145.232620	325.744629	204.167145
3766.793932	-146.693756	328.608398	209.135010
3766.797257	-147.979553	332.115173	214.979523
3766.800604	-149.674469	335.329651	221.466965
3766.803927	-151.486282	338.193481	227.369949
3766.807258	-153.239624	341.407959	232.746933
3766.810592	-154.700760	344.680847	239.117477
3766.813924	-155.986572	348.362915	245.721786
3766.817253	-158.032150	351.343628	252.793686
3766.820588	-158.733490	353.915283	258.521332
3766.824363	-160.662201	357.421936	264.774994
3766.827698	-161.947983	359.993591	272.314453
3766.831010	-163.584457	362.798950	279.210999
3766.834345	-165.337830	366.130310	286.575104
3766.837687	-167.032745	369.227905	294.173004
3766.841011	-168.084747	372.267090	302.004700
3766.844354	-169.312103	374.488037	309.719482
3766.847684	-171.065460	377.819397	316.265350
3766.851013	-171.474579	381.092346	325.324371
3766.854366	-172.935730	383.663940	334.324982
3766.857698	-174.572174	386.878418	341.513733
3766.861046	-175.273529	389.099365	350.806549
3766.864345	-176.208664	391.846313	359.514923
3766.867687	-176.968460	395.119263	369.392181
3766.870998	-177.962021	397.106384	378.568085
3766.874361	-178.371140	399.853271	389.555817
3766.877685	-179.423141	401.957336	398.731750
3766.881048	-179.890701	404.587402	409.544128
3766.884339	-180.592056	406.866760	420.707214
3766.887694	-181.234955	409.204529	432.279388
3766.891032	-181.234955	411.367004	443.500885
3766.894363	-182.053177	412.652832	455.365326
3766.898103	-181.760971	414.113953	466.879028
3766.901431	-182.170074	415.282837	481.782562
3766.904788	-182.403870	416.393372	493.354797
3766.908112	-181.877853	417.562256	507.264740
3766.911449	-181.877853	418.672729	520.590271
3766.914883	-181.760971	418.380493	534.850952
3766.918162	-181.293411	418.322021	548.527161
3766.921481	-181.527191	417.503784	562.729370
3766.924787	-180.124496	416.860901	576.756226
3766.928088	-179.715363	415.808899	592.185852
3766.931454	-179.130936	413.997070	607.556946
3766.934782	-178.604904	411.776184	621.817627
3766.938153	-176.734665	409.087708	637.247192
3766.941517	-175.916428	406.866760	651.624756
3766.944836	-174.689072	403.710693	668.223267
3766.948088	-173.344818	399.736389	683.302124
3766.951434	-172.059036	395.762146	698.030396
3766.954759	-170.422562	391.554077	713.985901
3766.958100	-168.435425	386.820007	727.369934
3766.961459	-166.740509	381.910583	744.143738
3766.964848	-164.870255	375.247803	759.164185
3766.968206	-162.824677	369.403259	774.301514
3766.971844	-160.369965	363.091187	789.438904
3766.975208	-157.915253	356.662170	804.868530
3766.978618	-154.700760	349.707214	819.538208
3766.981918	-151.486282	341.817078	834.675598
3766.985274	-147.745773	333.576294	849.462341
3766.988606	-143.888382	325.043274	864.775024
3766.991938	-140.381653	317.328491	878.626526
3766.995221	-136.232040	307.918762	892.887207
3766.998588	-131.907074	297.632385	908.258362
3767.001919	-126.763878	287.872009	922.285156
3767.005272	-121.854469	277.118042	935.727600
3767.008623	-116.419060	266.773254	950.163635
3767.011969	-111.100517	256.136169	964.833374
3767.015262	-105.431328	244.271774	978.392700
3767.018695	-99.060791	232.465805	991.250732
3767.021974	-92.865578	218.964935	1003.991821
3767.025262	-85.969025	206.457626	1016.674438
3767.028592	-78.312683	192.781418	1028.655762
3767.031899	-71.766808	179.163635	1040.227905
3767.035251	-63.876678	165.019882	1052.384521
3767.038586	-56.804787	150.700760	1061.911133
3767.041912	-48.856224	135.504974	1072.197510
3767.045266	-41.842781	120.309181	1081.724121
3767.048998	-33.368202	104.821159	1090.198730
3767.052316	-25.302748	89.508476	1098.673218
3767.055620	-17.471071	73.085327	1106.914062
3767.058937	-9.522501	56.837521	1113.459961
3767.062241	-2.158386	41.174168	1118.135498
3767.065545	5.848625	24.283459	1123.921631
3767.068865	13.914084	8.269433	1128.188110
3767.072130	21.804207	-8.036821	1131.168823
3767.075438	29.928112	-24.752193	1133.974243
3767.079165	36.590881	-40.415546	1136.370483
3767.082424	45.182350	-56.488022	1136.954956
3767.085737	51.611336	-71.800705	1137.539429
3767.089043	58.332550	-87.171837	1136.545898
3767.092360	65.696671	-102.952080	1134.441895
3767.095699	72.476326	-117.797195	1132.571655
3767.098970	79.139099	-132.700760	1129.181763
3767.102331	85.100525	-146.201645	1125.850342
3767.105622	92.406197	-160.111633	1121.350098
3767.109421	99.068970	-173.963181	1114.862671
3767.112693	105.205727	-186.178253	1109.661011
3767.115969	110.816483	-199.445343	1102.238525
3767.119209	116.427231	-211.251312	1095.341919
3767.122527	122.096436	-222.589706	1087.218018
3767.125839	127.940971	-234.161880	1079.561646
3767.129150	133.902390	-244.214493	1069.158325
3767.132468	139.337814	-255.377548	1059.339478
3767.135739	144.948563	-265.430176	1048.293457
3767.139109	150.033310	-274.664551	1037.773193
3767.142867	155.293381	-284.191101	1026.551758
3767.146188	160.144348	-292.782593	1013.635254
3767.149542	165.404434	-301.315613	1001.244812
3767.152844	170.080063	-309.381042	988.328491
3767.156111	174.580368	-317.095886	975.996521
