time (s)	magX	magY	magZ
3360.746989	-207.418457	433.751587	568.632385
3360.750242	-206.541794	433.810059	584.821716
3360.753581	-205.548218	433.751587	601.770874
3360.756856	-203.619522	433.284058	617.726501
3360.760259	-201.924606	431.998230	634.617126
3360.763541	-199.995926	430.653992	651.507874
3360.766818	-197.424316	428.257751	667.930969
3360.770601	-195.554062	425.861450	685.172363
3360.773867	-192.924026	423.406738	702.238403
3360.777172	-190.060211	420.192322	718.427795
3360.780474	-187.021042	416.919373	736.136719
3360.783722	-183.397430	412.886597	752.267639
3360.787026	-180.066055	409.204529	768.690796
3360.790276	-175.741104	404.528931	786.224426
3360.794033	-171.182358	399.444214	802.238464
3360.797349	-167.149628	394.184082	818.661621
3360.800648	-162.240219	387.988892	835.902954
3360.803922	-156.980133	381.910583	852.326111
3360.807207	-150.784927	374.663330	869.216858
3360.810475	-144.765060	366.773254	885.873718
3360.813802	-138.628296	358.707764	902.355286
3360.817156	-131.673294	350.642334	918.720093
3360.820437	-124.309166	341.291077	935.786072
3360.824200	-116.594383	332.173584	951.858521
3360.827860	-108.938057	321.653381	968.807678
3360.831198	-100.638817	310.548828	985.347778
3360.834525	-91.521339	299.093506	1000.601990
3360.837856	-82.286964	286.644653	1016.090027
3360.841189	-72.701935	274.546478	1031.285767
3360.844526	-63.175331	260.402710	1047.299805
3360.847853	-52.772057	247.252487	1061.034546
3360.851196	-42.135010	233.634705	1075.937988
3360.854535	-31.381063	218.380478	1088.971313
3360.857856	-20.919344	202.775574	1101.186401
3360.861189	-9.697840	186.703094	1113.518311
3360.864528	1.699005	170.396851	1124.155396
3360.867854	12.686732	153.681473	1135.376953
3360.871187	24.492693	135.797195	1144.202271
3360.874517	36.123318	118.848045	1153.436523
3360.877852	47.695496	102.015785	1160.859131
3360.881183	58.858559	83.956161	1167.580322
3360.884524	70.255409	66.597900	1174.009277
3360.887859	81.476913	48.713615	1178.041992
3360.891188	92.406197	31.822910	1181.198120
3360.894521	103.393921	14.230859	1183.009888
3360.897873	114.030975	-2.835184	1184.997070
3360.901184	124.668030	-19.258327	1185.990601
3360.904515	134.720627	-35.681473	1185.406250
3360.907854	144.130325	-51.227936	1183.302124
3360.911185	154.299820	-67.241966	1181.840942
3360.914519	163.943298	-82.320862	1178.626587
3360.917848	172.710098	-97.049095	1173.892456
3360.921186	181.827576	-112.303329	1169.392090
3360.924515	190.828156	-125.979553	1162.963135
3360.927904	198.835175	-139.714203	1157.118652
3360.931190	207.192871	-152.981293	1147.825806
3360.934519	216.018112	-165.313278	1140.870728
3360.937852	222.973114	-178.054352	1130.175293
3360.941210	230.804779	-189.684967	1120.940918
3360.944520	238.519577	-200.906494	1108.842773
3360.947851	245.357681	-212.128006	1098.381104
3360.951179	252.020462	-222.414383	1086.575073
3360.954524	258.507874	-232.233200	1073.132568
3360.957852	264.644653	-241.526016	1058.871948
3360.961180	270.080078	-251.286392	1045.254272
3360.964937	276.625946	-260.637634	1030.350708
3360.968270	281.476898	-269.638245	1014.862671
3360.971623	286.795441	-277.411438	998.497986
3360.974961	291.821747	-285.710693	982.717712
3360.978286	295.796021	-292.548828	965.827026
3360.981637	300.646973	-299.445374	947.299805
3360.984973	304.095276	-306.458801	929.064880
3360.988277	307.894196	-312.770874	912.291077
3360.991601	310.933380	-318.206299	893.588562
3360.994932	313.621857	-323.875488	875.587402
3360.998287	315.492096	-329.544739	856.592590
3361.001599	316.427246	-334.044983	837.305664
3361.004930	318.940369	-338.077759	818.135559
3361.008288	319.700165	-342.168884	799.023926
3361.011634	320.459961	-345.734070	780.087646
3361.015003	320.927521	-348.597900	761.794250
3361.018268	321.161285	-350.877258	743.909973
3361.021602	320.752197	-353.331970	725.733459
3361.024924	320.109283	-355.202209	708.492065
3361.028256	319.407928	-356.838684	691.484497
3361.031601	318.297485	-358.358276	674.652222
3361.034936	317.128571	-359.234985	657.703064
3361.038262	316.485657	-359.819397	641.630615
3361.041613	314.790741	-360.228516	625.207458
3361.044943	312.862061	-360.345398	609.661011
3361.048281	311.167145	-360.579163	594.465210
3361.052025	309.238464	-360.170105	580.263000
3361.055356	307.601990	-359.760986	564.950256
3361.058684	305.147278	-358.942749	551.507874
3361.062037	303.043243	-357.423157	537.948547
3361.065374	301.289856	-356.897156	524.155457
3361.068752	299.361176	-355.377563	512.115662
3361.072117	297.549377	-353.857971	498.965546
3361.075361	295.445343	-352.163086	486.633575
3361.078688	292.756866	-350.585022	473.600250
3361.082017	290.419067	-349.065430	460.917603
3361.085401	289.133240	-346.902954	449.754517
3361.088697	286.444763	-345.734070	438.825256
3361.092082	284.340759	-342.753357	427.019287
3361.095414	281.944489	-340.357117	416.206909
3361.098755	279.548218	-338.136169	405.336090
3361.102015	277.035065	-335.856812	394.114563
3361.105354	274.697266	-333.402100	383.126831
3361.108691	272.417877	-331.239624	372.957336
3361.112027	269.846283	-328.025146	362.495636
3361.115400	267.333130	-326.037964	352.910583
3361.118786	264.469330	-322.998840	342.799530
3361.122074	262.131500	-320.661011	334.266510
3361.125351	259.267670	-318.673889	323.512573
3361.129114	256.696075	-315.634705	315.096436
3361.132447	254.182938	-312.887817	305.628296
3361.135845	251.786667	-309.614868	297.387482
3361.139176	248.630615	-307.393921	289.614258
3361.142115	245.416122	-304.004089	281.490356
3361.145788	242.902969	-301.549377	273.658691
3361.149122	239.454697	-299.562256	265.534760
3361.152456	237.584442	-296.990662	258.170654
3361.155825	234.311508	-293.776184	251.274109
3361.159169	231.506134	-291.847473	244.728226
3361.162514	229.226761	-288.808289	239.585037
3361.165849	226.596710	-286.821167	232.746933
3361.169134	223.674454	-284.249573	227.077728
3361.172499	221.395096	-281.794861	221.934525
3361.175832	219.291046	-279.106384	216.791336
3361.179170	216.368790	-276.827026	211.765045
3361.182529	214.556976	-274.839844	207.440094
3361.185849	211.985382	-272.209839	201.361771
3361.189127	209.939789	-270.164246	197.971939
3361.192502	207.718872	-268.995300	193.237869
3361.195834	205.264160	-266.365295	189.614258
3361.199170	203.218582	-265.313293	186.341309
3361.202518	201.348328	-262.800110	181.957916
3361.205826	199.361176	-260.345398	178.158966
3361.209294	197.841614	-258.942749	174.418457
3361.212563	196.555801	-256.312683	171.671539
3361.215855	194.860886	-255.085342	168.340149
3361.219234	192.756851	-252.805954	164.482742
3361.222525	191.471069	-251.286392	162.086502
3361.226318	190.009933	-248.773209	158.871994
3361.229620	188.373459	-246.844528	156.008163
3361.232928	186.678543	-245.441849	153.553467
3361.236220	184.808289	-243.279373	150.514313
3361.239542	183.697830	-241.409103	147.650497
3361.242832	182.236694	-240.123337	144.845108
3361.246111	180.892456	-237.668625	142.215073
3361.249423	179.022202	-236.207489	138.766800
3361.252709	177.385742	-234.571014	136.195206
3361.256048	176.099930	-232.817657	132.980698
3361.259798	174.697250	-231.122742	131.694916
3361.263181	173.703674	-229.135590	128.071289
3361.266446	172.417877	-228.142029	126.434837
3361.269718	170.898300	-226.096451	123.746346
3361.273024	169.612503	-225.044418	121.642311
3361.276278	167.976028	-223.174179	119.421394
3361.279562	167.040909	-222.531281	116.966682
3361.282895	165.755112	-221.011688	114.862648
3361.286658	164.761536	-219.784332	113.459961
3361.289947	163.651077	-219.258331	111.063698
3361.293228	161.722382	-217.329620	110.303925
3361.296515	160.670364	-216.862061	108.141441
3361.299820	159.618347	-216.102264	106.855637
3361.303101	159.150787	-214.874924	106.388077
3361.306538	157.455856	-213.998245	105.511398
3361.309844	157.397430	-213.589127	104.167160
3361.313134	155.877853	-212.478668	102.764473
3361.316476	155.293381	-212.654007	101.478668
3361.319755	155.118057	-211.835770	101.011101
3361.323084	153.890701	-211.485107	99.783752
3361.326450	153.072464	-210.491516	98.497955
3361.330180	152.604904	-210.374649	98.556404
3361.333503	151.903564	-210.374649	97.738167
3361.336772	151.319107	-209.907089	97.445938
3361.340135	150.617767	-209.614853	96.861481
3361.343414	150.851547	-209.205734	96.627701
3361.346749	150.617767	-208.738159	96.101692
3361.350059	150.208649	-208.329041	95.926353
3361.353378	149.799530	-208.679733	96.160141
3361.356682	149.799530	-208.153702	95.575684
3361.359950	149.273514	-207.744598	94.932793
3361.363281	149.273514	-207.043243	95.225014
3361.367001	148.805954	-207.919937	93.880775
3361.370263	148.455292	-207.335480	94.523666
3361.373560	148.104614	-207.101685	93.588547
3361.376880	148.221512	-206.926346	94.114555
3361.380202	147.870834	-206.458786	93.763885
3361.383571	147.812378	-206.108124	92.594978
3361.386843	147.169495	-205.991226	92.828758
3361.390164	147.461716	-205.698990	92.478088
3361.393464	147.344818	-205.991226	92.361198
3361.397272	146.818817	-205.406784	92.419640
3361.400557	147.344818	-205.932785	91.776741
3361.403856	147.111038	-205.874359	91.718292
3361.407132	147.578598	-205.815887	91.192291
3361.410451	147.227936	-206.049683	91.250732
3361.413794	146.935699	-205.815887	91.776741
3361.417163	147.520172	-205.991226	92.068962
3361.420447	146.760376	-206.458786	92.478088
3361.423743	146.526596	-207.160141	92.010521
3361.427042	147.169495	-207.335480	92.419640
3361.430724	146.994156	-207.803040	92.828758
3361.434493	147.286392	-208.387497	93.237869
3361.437798	147.286392	-209.205734	93.237869
3361.441130	147.111038	-209.614853	94.465225
3361.444465	147.929276	-210.666855	93.822327
3361.447799	148.338394	-211.601974	95.400352
3361.451130	148.279953	-213.063126	96.101692
3361.454464	148.805954	-213.413788	97.153709
3361.457800	149.156631	-214.407349	98.381058
3361.461124	149.857986	-215.517838	99.433083
3361.464489	150.091766	-216.452957	99.959091
3361.467805	150.559326	-217.797195	102.355347
3361.471130	151.143768	-218.732315	103.115135
3361.474465	151.669785	-219.492111	105.511398
3361.477806	152.254227	-220.953262	106.446526
3361.481124	152.721786	-222.063705	107.849213
3361.484461	153.773819	-223.349503	109.836357
3361.487790	154.475159	-224.635300	111.180595
3361.491125	155.234955	-225.628876	112.232605
3361.494462	155.702515	-227.440674	113.927528
3361.497793	156.871414	-228.726486	116.791351
3361.501123	157.689651	-229.836945	118.135590
3361.504458	158.215652	-231.122742	120.882530
3361.507792	159.326111	-232.291626	121.992989
3361.511122	160.144348	-234.103439	123.863235
3361.514459	161.196365	-234.629440	126.201057
3361.517789	162.073059	-236.558151	127.369957
3361.521143	162.891281	-237.493271	129.883102
3361.524455	164.177094	-239.363541	131.285782
3361.527841	164.995316	-240.240219	133.798950
3361.531126	165.521332	-242.110458	134.967850
3361.534452	167.040909	-243.746933	138.007004
3361.537791	167.800690	-245.500290	139.760361
3361.541120	168.209824	-246.961441	141.981293
3361.544454	170.372284	-248.481003	144.962006
3361.547787	171.015198	-251.227921	147.007599
3361.551115	172.008759	-252.396866	148.819397
3361.554455	173.060776	-255.202225	152.092331
3361.557786	174.229691	-256.312683	154.663925
3361.561126	174.580368	-259.176514	157.235519
3361.564488	176.509048	-260.696106	161.209808
3361.567786	176.859726	-263.267700	164.365860
3361.571121	178.671524	-265.488586	168.106369
3361.574453	179.431320	-267.417297	171.613083
3361.577787	181.126236	-270.573364	176.405609
3361.581116	181.944473	-272.735840	180.379898
3361.584452	183.230270	-275.307434	183.828156
3361.587787	184.340729	-278.463440	188.211563
3361.591563	185.451187	-281.093506	193.120987
3361.594887	187.321442	-283.840454	198.673294
3361.598209	188.198120	-286.996460	203.758026
3361.601549	189.425476	-290.035645	209.076553
3361.604882	191.120392	-293.542358	213.985962
3361.608246	192.289291	-296.172424	219.538284
3361.611540	193.575104	-298.919373	225.207474
3361.614879	194.744003	-301.724731	230.467560
3361.618228	196.614258	-305.056091	236.721207
3361.621554	197.841614	-308.153687	242.331955
3361.624983	199.711868	-311.368225	248.468735
3361.628212	201.640564	-314.056702	255.014603
3361.631562	203.393921	-317.388062	262.437195
3361.634870	205.088837	-320.836365	268.632385
3361.638203	205.907059	-323.992371	276.113373
3361.641536	207.368195	-326.447083	282.191711
3361.644871	210.407349	-329.486267	291.250732
3361.648206	212.219162	-332.642334	298.322632
3361.651590	213.212738	-335.798340	307.206299
3361.654887	214.673874	-338.662170	314.395111
3361.658219	216.251892	-342.052002	322.168335
3361.661534	218.414368	-345.441833	330.642914
3361.664871	219.933960	-348.597900	340.052612
3361.668205	221.804199	-351.344849	348.936310
3361.671536	223.148437	-354.793091	358.229095
3361.675337	224.668030	-357.540039	366.937469
3361.678641	226.246048	-360.812988	376.931641
3361.682030	227.590286	-363.735229	386.867340
3361.685407	228.759201	-367.125061	397.387482
3361.688702	229.869659	-370.164246	407.732330
3361.691963	231.330795	-373.378723	419.246033
3361.695302	231.798370	-376.417908	430.292206
3361.698627	232.967255	-379.340149	441.572174
3361.701976	233.610153	-382.554626	453.611938
3361.705329	234.720612	-385.593811	466.353027
3361.708683	235.012848	-388.106934	479.327911
3361.712056	235.421967	-391.146118	493.413208
3361.715296	236.298660	-394.302185	506.563416
3361.718634	236.649323	-397.399780	520.940918
3361.721942	236.123306	-400.672729	534.617126
3361.725307	236.181763	-402.426086	550.280518
3361.728633	235.831100	-405.348328	564.833435
3361.732018	235.889526	-407.569275	580.730530
3361.735386	235.071304	-409.556396	596.218567
3361.738706	234.253052	-411.894226	613.109253
3361.741955	233.843948	-412.595520	629.824646
3361.745279	232.733490	-414.407349	645.721802
3361.748637	231.506134	-415.868530	662.787842
3361.751968	231.097015	-416.862061	679.620056
3361.755295	229.518982	-418.089417	697.445923
3361.758693	227.707184	-418.206299	714.745728
3361.762020	225.603149	-417.621887	732.220886
3361.765710	224.083572	-417.797241	749.988281
3361.769060	221.687302	-417.212769	767.404968
3361.772425	219.349487	-417.212769	786.224426
3361.775785	216.485672	-415.517822	804.400940
3361.779122	213.621857	-413.705994	821.057800
3361.782478	210.991821	-411.660400	839.175903
3361.785773	208.011093	-409.147278	857.235535
3361.789061	204.562820	-407.218567	874.769104
3361.792440	200.120972	-403.770325	892.185791
3361.795772	197.257156	-400.848022	910.303894
3361.799186	192.347748	-397.107544	926.434814
3361.802478	188.081238	-392.607239	943.617737
3361.805823	183.990067	-388.457642	960.566895
3361.809081	179.080643	-383.431335	977.808289
3361.812453	173.119232	-377.469910	993.062500
3361.815774	167.800690	-372.209839	1010.186951
3361.819129	161.196365	-365.780823	1025.967285
3361.822425	154.592041	-359.527161	1040.753906
3361.825756	147.753952	-352.630615	1055.306885
3361.829072	139.980713	-344.915833	1069.392090
3361.832443	132.441269	-336.908813	1083.886597
3361.835774	124.901810	-328.492676	1096.452393
3361.839099	116.076561	-320.018127	1108.725830
3361.842465	107.017532	-310.549988	1121.466919
3361.845766	98.718292	-300.438904	1133.682129
3361.849138	89.308594	-290.210999	1143.851562
3361.852461	79.139099	-278.580383	1154.430054
3361.855783	69.086494	-267.592651	1163.722900
3361.859167	58.390999	-255.319138	1171.729980
3361.862944	48.455288	-243.104019	1179.093994
3361.866272	37.526009	-230.362946	1184.938599
3361.869552	26.012272	-217.738754	1191.718262
3361.872871	14.673874	-203.828751	1195.692505
3361.876160	3.686148	-189.451202	1199.140869
3361.879465	-7.476915	-174.956757	1200.894165
3361.882734	-18.523085	-160.345413	1201.770874
3361.886073	-29.978376	-145.149612	1202.998291
3361.889453	-41.609001	-129.077148	1203.582642
3361.892774	-52.596725	-113.647568	1201.478638
3361.896059	-63.292229	-96.756866	1200.368164
3361.899375	-74.981300	-80.801285	1196.802979
3361.903157	-85.092346	-64.553482	1192.478149
3361.906101	-95.904732	-48.539452	1186.808838
3361.909807	-105.255989	-31.414959	1181.139648
3361.913181	-115.191704	-15.284046	1173.892456
3361.916477	-125.361198	0.846872	1166.528320
3361.919787	-134.712463	16.860901	1157.995361
3361.923128	-143.713043	33.167152	1149.111572
3361.926394	-152.304504	49.122734	1139.643433
3361.929762	-161.421982	64.727646	1128.246582
3361.933062	-170.013443	80.449448	1117.609619
3361.936374	-177.786682	95.002335	1106.855591
3361.939655	-185.559921	110.431908	1093.880737
3361.942999	-193.274704	124.341904	1081.139648
3361.946688	-200.989487	138.661026	1068.398560
3361.949964	-207.710693	152.161896	1054.371704
3361.953266	-213.964371	165.896561	1038.825195
3361.956550	-221.328476	179.046753	1024.623047
3361.959876	-227.815918	191.261841	1009.661011
3361.963141	-233.777344	204.119812	994.348328
3361.966422	-240.030975	215.516663	979.327881
3361.970134	-245.700195	227.205719	962.729370
3361.973454	-251.778503	237.842789	947.007568
3361.976717	-256.921692	248.187607	929.707703
3361.980056	-261.889557	258.357086	913.050842
3361.983330	-266.565186	268.059021	895.867920
3361.986665	-271.123901	276.884277	878.684937
3361.989999	-275.390442	285.534180	861.385132
3361.993305	-279.481598	294.242554	843.909912
3361.996573	-282.696106	301.665100	826.259399
3361.999880	-285.618347	308.912292	809.018127
3362.003633	-288.715942	316.042664	791.484497
3362.006928	-291.404449	323.523682	773.600220
3362.010230	-293.625366	328.433105	756.884827
3362.013546	-295.028076	334.452942	740.169495
3362.016819	-296.664520	339.479248	723.044983
3362.020157	-297.891876	344.505554	706.446533
3362.023535	-299.060791	348.713623	689.146667
3362.026813	-298.768555	352.629456	672.489746
3362.030116	-299.294556	356.369995	656.183472
3362.033423	-299.060791	359.584473	640.753967
3362.037170	-298.826996	362.740540	624.389221
3362.040453	-298.593231	365.312073	609.485657
3362.043736	-297.891876	367.299255	594.932739
3362.047070	-296.606079	369.169495	579.503235
3362.050376	-296.138519	370.805969	564.599609
3362.053632	-294.443604	371.565735	550.689636
3362.056978	-293.742279	372.442444	537.071838
3362.060290	-291.579803	372.909973	523.395630
3362.063598	-290.235535	373.728210	510.187042
3362.066907	-288.715942	373.786682	497.621277
3362.070665	-286.787262	373.260681	484.997070
3362.074431	-285.326111	373.728210	472.139099
3362.077734	-283.222107	373.143738	459.924011
3362.081077	-281.001190	372.150208	447.884277
3362.084399	-279.072479	370.630615	437.539459
3362.087738	-277.260681	369.227905	426.317963
3362.091068	-274.805969	368.175903	415.271790
3362.094394	-273.052612	367.007019	403.933380
3362.097734	-270.130341	364.961426	393.179443
3362.101091	-267.967865	362.448303	383.009949
3362.104400	-265.922272	360.928711	373.015808
3362.107731	-263.759796	359.058472	363.722992
3362.111068	-261.655762	356.720642	352.501465
3362.114395	-258.616608	354.441284	343.851562
3362.117762	-256.629456	351.694336	335.201630
3362.121061	-254.759216	349.181152	326.259521
3362.124400	-252.129181	346.843384	316.849792
3362.127731	-249.674469	343.979553	308.316803
3362.131061	-247.278198	341.349487	300.075989
3362.134395	-244.940399	338.251892	291.484528
3362.137727	-242.777924	335.446533	283.886627
3362.141057	-240.147888	333.050293	275.879608
3362.144397	-237.342499	329.894226	267.405029
3362.147731	-234.770905	327.264160	260.800720
3362.151063	-232.257751	324.517273	253.319687
3362.154394	-229.744598	321.185852	246.656921
3362.157729	-226.705460	318.438904	239.643478
3362.161080	-224.659851	314.873779	233.331375
3362.164400	-221.796036	312.126831	227.019287
3362.167732	-219.691986	309.146118	221.116302
3362.171058	-216.535950	306.516052	215.505554
3362.174396	-214.198135	303.769104	209.836334
3362.177729	-212.152557	300.788452	204.050247
3362.181060	-210.457626	298.099915	198.497940
3362.184391	-207.535355	295.703674	194.289886
3362.187722	-204.846878	292.898315	188.912918
3362.191058	-202.742844	290.385132	184.880188
3362.194386	-200.288147	287.988892	179.503204
3362.197721	-197.774979	285.300415	175.762695
