time (s)	magX	magY	magZ
2715.399077	295.620667	-401.140259	1001.770874
2715.402854	299.536530	-405.815918	979.327881
2715.406204	302.634125	-410.666870	955.598999
2715.409517	305.147278	-415.225586	933.974243
2715.412833	307.134430	-418.907654	909.719482
2715.416163	308.770905	-422.180603	886.808899
2715.419510	309.706024	-426.154907	864.190491
2715.422840	310.407349	-428.668030	842.448792
2715.426208	310.758026	-431.181152	818.836914
2715.429497	309.881348	-432.759216	797.738159
2715.432834	309.647552	-434.103455	777.457642
2715.436189	308.770905	-435.038574	756.534180
2715.439518	308.303345	-435.506104	735.435425
2715.442842	306.900635	-435.622986	715.330200
2715.446176	305.322601	-436.207458	695.575684
2715.449520	303.101685	-435.038574	677.223816
2715.452828	300.939209	-435.272339	659.339539
2715.456162	299.361176	-433.869690	640.870789
2715.459494	297.081818	-432.291626	624.389221
2715.462829	294.977783	-431.414978	607.790771
2715.466158	293.516663	-429.018738	591.075378
2715.469553	291.295715	-427.206848	576.697815
2715.472849	289.016357	-425.570435	561.326721
2715.476179	287.613678	-422.881897	547.124512
2715.479521	285.334290	-420.368774	533.039124
2715.483252	283.405609	-418.264771	519.421326
2715.486580	280.717133	-415.751648	505.394501
2715.489923	278.788422	-412.537109	491.426086
2715.493275	276.801300	-409.907104	478.977203
2715.496601	275.164825	-407.160095	464.599640
2715.500032	273.820587	-403.068970	452.969025
2715.503364	271.658081	-400.263550	440.052582
2715.506596	269.846283	-396.172424	428.714203
2715.509914	268.151367	-393.191711	416.732910
2715.513275	266.105774	-389.568054	404.810028
2715.516602	264.235535	-385.710693	394.289886
2715.519937	262.482178	-382.145508	382.659271
2715.523346	260.202789	-378.755676	372.139099
2715.526652	257.981873	-374.956726	361.092926
2715.530018	255.877853	-371.566895	349.403870
2715.533246	253.656921	-367.651062	340.169495
2715.536597	251.260666	-364.027466	330.175354
2715.539929	248.747513	-360.053162	320.181183
2715.543269	246.701904	-356.780273	310.654602
2715.546670	243.487427	-353.273499	300.835754
2715.549974	241.149612	-349.474548	291.835205
2715.553318	238.110443	-345.967834	283.243713
2715.557021	235.655731	-342.052002	275.353607
2715.560354	233.084152	-338.077759	266.995911
2715.563735	229.869659	-335.681458	258.930450
2715.567068	227.590286	-331.999451	250.923416
2715.570395	224.142014	-329.077148	244.845108
2715.573769	222.154877	-325.102844	238.123886
2715.577072	219.291046	-322.297485	231.928680
2715.580384	216.427231	-320.076538	226.142593
2715.583762	213.738739	-316.628296	220.414948
2715.587058	210.991821	-314.056702	215.213318
2715.590456	208.420212	-310.959106	210.479233
2715.593724	206.023956	-308.445923	204.985382
2715.597055	203.919922	-305.991211	199.959091
2715.600372	201.640564	-303.361206	196.043243
2715.603732	199.185852	-300.731140	191.776733
2715.607077	197.549377	-298.685547	187.627106
2715.610407	195.796021	-296.639954	184.354172
2715.613703	194.101105	-293.951477	180.730560
2715.617009	192.523071	-291.438354	176.347153
2715.620408	191.061935	-288.983643	173.892456
2715.623755	189.893036	-287.522522	169.976608
2715.627081	187.964340	-285.009338	168.047913
2715.630435	186.853882	-282.437744	164.424316
2715.633801	184.866745	-280.099915	160.917572
2715.637083	183.873169	-277.411438	158.404434
2715.640447	182.587357	-275.833435	154.897720
2715.644222	182.412033	-273.495605	153.144363
2715.647546	180.541779	-271.566895	150.397415
2715.650838	179.606659	-269.346008	146.540039
2715.654127	178.437744	-267.475769	144.085327
2715.657443	177.151962	-265.780823	142.098175
2715.660720	176.450607	-263.384583	138.883682
2715.664069	174.697250	-261.748108	136.721207
2715.667350	173.878998	-258.884277	133.565170
2715.670693	172.885437	-256.955566	131.578018
2715.673959	171.716537	-255.260666	128.188187
2715.677730	170.606064	-253.507309	125.558159
2715.681018	169.144943	-251.812393	123.103447
2715.684303	168.092926	-250.175919	121.174751
2715.687638	166.748688	-248.247208	118.544716
2715.690943	166.047333	-246.902969	116.849800
2715.694361	164.293976	-246.026321	114.745766
2715.697679	163.008179	-244.506729	112.524841
2715.700970	161.839279	-242.636459	110.303925
2715.704254	160.845703	-241.292221	109.193451
2715.707543	160.027466	-240.532425	108.024544
2715.710853	159.326111	-239.480423	106.446526
2715.714614	157.572754	-238.779068	105.160721
2715.717939	157.280533	-237.493271	103.407364
2715.721222	156.345413	-236.967285	102.296906
2715.724592	155.585617	-236.265930	101.770897
2715.727843	154.825821	-235.681473	100.894218
2715.731174	154.182922	-235.272369	99.725311
2715.734507	152.838684	-234.220337	99.023972
2715.737805	152.137344	-233.811218	98.497955
2715.741071	151.611328	-233.811218	98.088844
2715.744380	151.202225	-233.226761	97.095261
2715.747760	151.202225	-233.109879	96.978371
2715.751512	151.026886	-233.051422	96.978371
2715.754416	150.617767	-232.174759	96.569260
2715.758106	150.909988	-232.408524	96.043251
2715.761421	150.033310	-231.765640	96.160141
2715.764731	149.857986	-231.356506	97.095261
2715.768045	149.974869	-231.531860	96.218590
2715.771390	149.916412	-231.122742	97.036819
2715.774666	149.974869	-231.356506	96.510811
2715.778033	149.741089	-231.005844	95.692574
2715.781324	149.682632	-230.772064	95.809464
2715.784611	150.208649	-230.304504	95.049683
2715.788382	150.267090	-230.479843	95.283463
2715.791689	150.909988	-230.421387	96.160141
2715.795001	150.500870	-229.836945	94.874344
2715.798296	150.793106	-229.544724	94.348335
2715.801546	150.559326	-229.544724	95.225014
2715.804843	150.909988	-229.077148	94.815895
2715.808120	150.617767	-229.720047	94.289886
2715.811458	150.909988	-229.310928	94.699005
2715.814781	151.085327	-229.018692	94.699005
2715.818086	151.260666	-229.427826	94.757454
2715.821814	151.319107	-229.486252	95.108124
2715.825190	151.436005	-230.362946	94.815895
2715.828464	151.319107	-230.304504	94.932793
2715.831772	150.793106	-230.362946	95.283463
2715.835047	150.676208	-231.005844	95.809464
2715.838342	150.968445	-231.765640	95.867912
2715.841630	151.085327	-232.466995	96.627701
2715.844908	151.260666	-232.934555	96.627701
2715.848255	151.202225	-233.343658	97.679718
2715.851967	151.611328	-234.629440	98.147278
2715.855731	152.078903	-235.155472	99.842201
2715.859035	151.903564	-236.441254	99.900642
2715.862360	152.604904	-237.610184	100.952660
2715.865693	152.429581	-238.895981	101.595566
2715.869051	153.247803	-240.123337	103.465813
2715.872358	153.481583	-240.824661	104.167160
2715.875692	153.773819	-242.694901	106.037407
2715.879028	154.416702	-243.805374	106.563408
2715.882358	155.001175	-245.441849	109.427231
2715.885697	156.053177	-246.493881	110.537704
2715.889028	156.696075	-248.305649	112.817070
2715.892361	157.338974	-249.825241	114.102859
2715.895696	158.449432	-251.461716	116.323784
2715.899037	159.443008	-252.922836	117.843376
2715.902358	160.495026	-253.799545	119.947403
2715.905694	161.430145	-255.962021	122.460548
2715.909023	162.423721	-257.890686	124.973694
2715.912356	163.826401	-259.118042	126.902397
2715.915730	164.936859	-261.105225	129.590881
2715.919024	166.105789	-262.332581	131.987137
2715.922359	167.216248	-263.384583	133.565170
2715.925692	168.735809	-265.663940	136.136765
2715.929028	169.846283	-267.008179	137.948563
2715.932357	171.190521	-268.936890	140.578598
2715.935691	172.300980	-270.339539	142.857971
2715.939024	173.937454	-272.209839	145.312683
2715.942364	174.989471	-273.963196	148.468719
2715.945688	175.807709	-275.891907	150.923431
2715.949017	177.327286	-277.586792	153.319687
2715.952347	178.963760	-280.041504	156.183517
2715.955684	179.898880	-281.911743	159.105774
2715.959019	180.834015	-284.249573	161.969604
2715.962357	182.295151	-285.827576	164.833420
2715.965690	183.054932	-288.749817	167.580353
2715.969022	184.340729	-290.912292	171.729980
2715.972350	185.684967	-293.016357	174.652237
2715.975683	186.853882	-295.821716	179.210983
2715.979059	187.263000	-298.568665	183.594376
2715.982350	188.782578	-300.906494	186.925766
2715.985705	190.185257	-304.296326	190.783173
2715.989017	191.704849	-306.867920	194.991226
2715.992349	192.990631	-310.082397	199.842194
2715.995685	193.984207	-312.946228	204.576248
2715.999449	195.386902	-315.576294	209.018112
2716.002774	196.731140	-318.673889	215.213318
2716.006106	198.309174	-322.765015	220.531845
2716.009441	200.354752	-325.862671	226.785492
2716.012781	201.874344	-329.720032	231.987137
2716.016137	202.809464	-332.233215	238.007004
2716.019461	204.971939	-336.090576	244.377548
2716.022792	206.666855	-339.246643	251.390976
2716.026098	208.946213	-343.513184	258.287567
2716.029467	210.641129	-347.078308	265.359436
2716.032775	213.095840	-349.942139	272.372894
2716.036102	214.732315	-353.156616	281.198120
2716.039431	217.245468	-356.838684	288.445374
2716.042771	219.524841	-360.520752	297.036835
2716.046100	220.810623	-364.144348	305.452972
2716.049453	223.499115	-367.534180	314.570435
2716.052791	225.486252	-371.450012	322.752777
2716.056124	227.473404	-374.021606	331.052032
2716.059457	230.337219	-377.879028	341.455292
2716.062770	232.675034	-381.677979	350.923431
2716.066139	235.071304	-384.424927	360.508484
2716.069429	237.584442	-388.516052	369.976624
2716.073205	239.922256	-391.613647	380.613678
2716.076545	241.734070	-394.945068	391.250732
2716.079943	243.136765	-398.627136	401.653992
2716.083250	245.474579	-401.607849	412.700165
2716.086561	247.169495	-404.822327	423.687927
2716.089850	248.864395	-408.329041	435.201630
2716.093186	251.552887	-411.952637	445.721802
2716.096540	252.897125	-415.576233	458.346039
2716.099872	254.416702	-417.797241	469.918182
2716.103261	255.877853	-421.596130	484.061951
2716.106626	257.338989	-424.927551	497.329041
2716.109963	258.800110	-428.843384	510.654572
2716.113186	260.144348	-432.057861	524.623047
2716.116540	260.787262	-435.038574	539.818848
2716.119856	261.780823	-438.077698	553.670349
2716.123203	262.073059	-441.642883	568.866089
2716.126538	262.832855	-444.156067	583.828186
2716.129939	262.715942	-447.253662	600.894165
2716.133271	263.066620	-450.292786	616.791382
2716.136524	263.183502	-453.039734	634.149597
2716.139855	263.300415	-454.968445	652.150757
2716.143184	263.125061	-457.130920	669.450562
2716.146557	262.774414	-460.111633	688.912903
2716.149869	261.488617	-462.215637	707.732300
2716.153289	261.547058	-463.618347	726.317932
2716.156577	260.436584	-464.845703	747.475159
2716.160299	259.852142	-465.488586	767.229675
2716.163628	258.916992	-466.365295	788.036194
2716.166954	258.215668	-466.774414	808.433655
2716.170337	257.105194	-466.073059	829.415527
2716.173677	255.819397	-465.196411	851.507874
2716.177035	253.773804	-463.793701	873.307983
2716.180329	251.669769	-462.449463	893.179443
2716.183642	250.208649	-459.527161	915.447021
2716.187017	247.403259	-456.312683	936.487427
2716.190369	245.416122	-452.455322	959.339539
2716.193702	243.019867	-448.948547	980.029236
2716.197064	239.980698	-444.623596	999.725281
2716.200405	236.590866	-439.889526	1020.181213
2716.203692	233.084152	-434.161865	1040.286377
2716.207013	230.161880	-429.252441	1059.690186
2716.210338	226.421387	-423.641724	1079.035645
2716.213692	221.745758	-417.446472	1098.731689
2716.217043	217.011673	-410.959106	1116.206787
2716.220369	212.394501	-404.179382	1135.026245
2716.223675	206.959076	-396.113953	1153.144409
2716.227010	201.289886	-388.516052	1169.450562
2716.230332	194.977783	-380.333740	1186.750366
2716.233668	188.022781	-370.924011	1201.595459
2716.237042	182.119797	-362.040344	1216.849854
2716.240372	174.989471	-352.163086	1231.344238
2716.244133	167.099350	-342.168884	1244.786621
2716.247472	159.092331	-331.824097	1258.170654
2716.250761	150.793106	-320.602539	1271.203857
2716.254070	141.441833	-309.264160	1282.308594
2716.257379	131.272354	-296.756897	1294.348389
2716.260718	121.921104	-283.898865	1303.407349
2716.264062	112.394508	-270.164246	1313.576782
2716.267339	102.166573	-256.604919	1321.992920
2716.270646	91.821739	-242.344254	1330.467529
2716.273940	80.424896	-227.674469	1336.779541
2716.277268	69.320274	-212.186432	1342.974854
2716.281015	57.864990	-196.873764	1347.241333
2716.284290	46.994156	-180.041504	1350.923462
2716.287552	35.889538	-162.215668	1352.676758
2716.290906	23.616013	-144.740509	1354.605469
2716.294211	12.394505	-126.563995	1353.553467
2716.297557	0.413208	-108.270599	1352.209229
2716.300841	-10.925188	-88.340744	1350.806519
2716.304169	-21.737581	-69.521332	1347.124512
2716.307434	-33.075981	-50.468147	1342.332031
2716.310739	-43.888367	-30.362946	1336.838013
2716.314525	-54.116302	-10.725306	1329.883057
2716.317848	-64.694916	9.496785	1321.233154
2716.321217	-75.390411	29.017534	1312.875488
2716.324530	-84.741669	48.596725	1303.816406
2716.327812	-94.618935	68.351257	1293.822266
2716.331104	-103.794853	87.755112	1281.022705
2716.334403	-112.620110	106.399178	1270.561035
2716.337660	-121.503792	125.160141	1257.469238
2716.340988	-130.036835	143.278198	1244.026855
2716.344315	-138.219177	161.104034	1231.344238
2716.348000	-146.167740	177.760956	1216.615967
2716.351315	-154.233200	194.417892	1201.128052
2716.354576	-162.357117	210.315018	1186.399780
2716.357860	-169.428986	225.861465	1171.262329
2716.361208	-176.851562	240.881943	1155.482056
2716.364533	-183.455872	255.259506	1139.526611
2716.367792	-190.527771	268.760376	1122.986572
2716.371119	-196.898315	282.202820	1105.686646
2716.374421	-203.093521	295.002319	1089.029785
2716.378216	-209.464066	306.691406	1071.846924
2716.381515	-214.431931	318.789612	1054.371704
2716.384811	-220.510239	330.244873	1036.370483
2716.388073	-226.179428	341.291077	1019.246033
2716.391365	-231.497955	350.700745	1000.251282
2716.394677	-236.874939	360.402710	982.717712
2716.397987	-241.375244	370.279968	964.073669
2716.401291	-246.226196	379.397461	944.552917
2716.404615	-250.258911	388.222656	926.201050
2716.408352	-254.057861	395.703674	907.264709
2716.411641	-257.330811	403.476929	888.270020
2716.415053	-260.837524	410.490356	869.216858
2716.418384	-263.935120	416.744019	850.572754
2716.421666	-266.506714	422.646973	831.753357
2716.425018	-269.078339	428.725281	812.349487
2716.428309	-271.007019	433.810059	794.172974
2716.431596	-272.468170	438.777893	774.710693
2716.434919	-274.046173	442.693726	757.761536
2716.438219	-275.565765	447.486267	738.883667
2716.441519	-275.507294	450.525452	721.583862
2716.445261	-275.624207	453.389221	704.693115
2716.448969	-276.150208	456.077759	687.860901
2716.452316	-276.267090	458.123352	670.794800
2716.455641	-275.799530	460.052063	654.430176
2716.458967	-274.981293	461.396240	638.357666
2716.462306	-274.455322	462.272949	621.466980
2716.465636	-273.695526	463.967896	606.212708
2716.468972	-272.234375	464.435425	592.185852
2716.472306	-270.597900	464.669189	576.756226
2716.475641	-269.604309	463.850952	562.086487
2716.478964	-268.201630	463.208069	548.234924
2716.482301	-266.974274	463.032715	535.143188
2716.485630	-265.220917	462.214478	522.285156
2716.489010	-263.233765	460.519592	508.959656
2716.492295	-262.123322	459.233765	496.686157
2716.495641	-260.253082	457.889526	484.529541
2716.498966	-258.675049	456.369934	471.145538
2716.502307	-257.447693	454.207458	460.391602
2716.505632	-255.460541	452.161926	449.696106
2716.508969	-253.648743	449.181213	438.825256
2716.512294	-252.421387	446.434204	427.895966
2716.515635	-250.960266	444.037964	417.083588
2716.518960	-249.148468	441.524841	406.914093
2716.522291	-247.102875	438.368774	396.861481
2716.525630	-245.466400	434.979004	387.802460
2716.528960	-244.239044	432.056702	377.399200
2716.532313	-241.667450	428.491516	367.872589
2716.535630	-240.440094	425.803040	358.872009
2716.538963	-238.219177	422.822327	349.053192
2716.542289	-236.582703	419.315613	340.403290
2716.545631	-235.121582	415.224426	332.220917
2716.548955	-233.485107	411.951477	324.155457
2716.552300	-230.562836	408.678528	315.505554
2716.555632	-228.867920	404.762695	307.849243
2716.558963	-226.822327	401.723572	300.368195
2716.562291	-225.068970	398.099915	291.718292
2716.565624	-222.497360	394.710083	284.646393
2716.568959	-220.802475	391.144958	277.106964
2716.572296	-218.523102	388.047363	269.918182
2716.575666	-216.243713	384.189941	262.729401
2716.578959	-213.905899	380.741638	255.715927
2716.582296	-211.684982	377.585632	249.053162
2716.585625	-209.522507	374.254272	242.682617
2716.588957	-208.061386	370.279968	237.130325
2716.592708	-205.957336	367.474548	231.168884
2716.596062	-203.736420	364.669189	225.265930
2716.599418	-201.106384	361.746948	219.479828
2716.602733	-198.885468	358.006409	214.453537
2716.606080	-196.839859	355.551697	209.777908
2716.609380	-194.618942	352.161926	203.933365
2716.612731	-192.339584	349.648743	199.666855
2716.616047	-190.469330	346.375793	195.517227
2716.619422	-188.599060	343.453552	191.133835
2716.622711	-186.787262	340.180603	187.218002
2716.626041	-185.209244	337.959656	182.893036
2716.629378	-183.806564	335.446533	178.860306
2716.632725	-181.468750	332.874939	174.535355
2716.636081	-180.182938	330.127991	170.853287
2716.639397	-178.312683	326.738159	167.697250
2716.642739	-177.202225	324.166565	164.541199
2716.646038	-175.741104	322.296326	161.326706
2716.649380	-174.104614	319.958496	158.229095
2716.652709	-172.526596	316.627136	155.365280
2716.656039	-171.591476	313.938660	152.501450
2716.659376	-170.539459	312.126831	149.520737
2716.662725	-169.195206	308.737000	146.773819
2716.666530	-167.792526	307.275879	144.845108
2716.669864	-167.266525	304.762695	141.396835
2716.673156	-165.396271	302.717163	139.000580
2716.676461	-164.753357	300.145508	137.071884
2716.679835	-163.116898	298.333740	134.149612
2716.683149	-162.123322	296.288147	131.928696
2716.686485	-161.129761	293.716553	129.707764
2716.689860	-159.610168	291.729370	127.662193
2716.693239	-158.850388	289.333130	125.090591
2716.696566	-158.207489	287.170654	123.395676
2716.699797	-156.395691	285.651062	120.590302
2716.703130	-155.460556	283.430176	118.720047
2716.706474	-154.116318	281.618347	116.382233
2716.709815	-153.005844	279.864990	114.511986
2716.713157	-151.895386	278.696106	112.407951
2716.716534	-150.375809	277.293396	110.479256
2716.719858	-149.732910	275.364685	108.959671
2716.723141	-148.622452	273.552887	106.972534
2716.726463	-147.161316	272.500854	105.394501
2716.729800	-146.167740	270.630615	104.050262
2716.733143	-145.524841	270.163055	103.115135
2716.736474	-144.823502	268.468140	101.303337
2716.739906	-143.537704	267.123901	100.075981
2716.743188	-142.719467	265.954987	99.140854
2716.746962	-142.076569	264.727631	97.387497
2716.750290	-141.492111	264.435425	96.335480
2716.753572	-140.673889	263.850952	95.751022
2716.756966	-140.147873	262.740509	95.166573
2716.760300	-139.446533	262.156067	94.465225
2716.763659	-139.037415	261.571594	93.354759
2716.766959	-138.277618	260.461121	93.354759
2716.770269	-137.576279	259.526001	92.361198
2716.773600	-137.284058	259.350677	91.835182
2716.776967	-136.991821	258.883118	91.309181
2716.780285	-136.641159	258.064880	90.841614
2716.783678	-136.991821	258.006409	90.549385
2716.786957	-136.232040	257.597321	90.490944
2716.790270	-135.939804	257.714172	90.198715
2716.793655	-136.173599	257.012878	89.964935
2716.796961	-135.881363	256.428406	89.088257
2716.800291	-135.822906	255.960846	89.497368
2716.803652	-135.530701	256.077759	89.029808
2716.806926	-135.472244	255.434845	88.386909
2716.810228	-135.063141	255.142609	89.029808
2716.813618	-135.004684	254.441254	88.562248
2716.816973	-135.296921	255.025711	87.393341
2716.820310	-135.647583	254.967285	88.328461
2716.823642	-134.478668	254.382828	87.860901
2716.827012	-134.770905	254.324356	87.042664
2716.830756	-134.712463	254.207489	87.510231
2716.834088	-134.654007	254.149033	87.744011
2716.837358	-134.420227	254.382828	86.867325
2716.840692	-134.537125	254.441254	87.276451
2716.844015	-134.654007	254.090591	86.925774
2716.847308	-134.537125	254.733490	86.399765
2716.850610	-134.186447	254.967285	86.867325
2716.853885	-134.069565	254.967285	87.334892
