crossing time (s)	slope (V/s)	crossing number
3252.190726	-110.708365	723
3253.238847	-94.015637	724
3254.322707	-75.711810	725
3255.318325	-68.420476	726
3256.378805	-55.072823	727
3257.393032	-47.943745	728
3258.415370	-38.693918	729
3259.461575	-34.977114	730
3260.480340	-28.607787	731
3261.505161	-22.953707	732
3262.524250	-21.261228	733
3263.560107	-16.231869	734
3264.627088	-13.797346	735
3265.602545	-11.828477	736
3266.656144	-10.057826	737
3267.650132	-9.755871	738
