time (s)	magX	magY	magZ
3005.247687	191.471069	-284.132690	190.432495
3005.250998	192.873749	-285.593811	193.120987
3005.254276	194.510223	-286.704285	196.277023
3005.257615	195.796021	-288.808289	198.965500
3005.260964	197.081818	-290.912292	202.706009
3005.264286	198.542953	-292.724121	206.446503
3005.267709	199.711868	-293.893066	209.251907
3005.271042	200.530090	-295.997070	213.985962
3005.274341	202.692566	-298.510193	217.960266
3005.277634	204.445938	-300.263611	222.460526
3005.280940	206.199295	-302.601440	226.493256
3005.284265	208.361771	-304.471680	231.285782
3005.287615	209.881348	-307.218567	235.961411
3005.291037	211.751602	-309.030396	241.279938
3005.294360	213.037399	-311.601990	246.072464
3005.297658	214.673874	-314.699585	252.267670
3005.301373	216.135010	-316.277588	256.651093
3005.304707	218.531265	-318.790771	263.606079
3005.308088	220.167740	-322.355957	269.801300
3005.311480	221.862656	-324.167725	275.938049
3005.314788	223.499115	-327.090027	281.841034
3005.318102	225.427811	-329.486267	289.380493
3005.321405	227.473404	-332.291626	296.277039
3005.324710	229.168320	-334.337219	303.173584
3005.328114	230.804779	-337.610168	310.420807
3005.331434	232.382797	-340.532410	317.200470
3005.334793	234.720612	-343.045593	324.213928
3005.338147	235.947968	-345.675659	331.519592
3005.341440	238.344238	-348.656372	338.942139
3005.344733	239.922256	-351.052612	347.299835
3005.348079	241.734070	-353.448853	354.605499
3005.351431	243.779663	-356.137329	363.664520
3005.354795	245.357681	-358.358276	371.320892
3005.358077	247.052597	-361.514282	379.327881
3005.361370	249.331955	-363.618347	388.036255
3005.364746	251.085327	-366.248413	396.218597
3005.368114	253.014023	-368.644653	405.219177
3005.371411	255.118057	-370.807129	414.336670
3005.375192	256.929871	-373.612488	424.623047
3005.378491	259.209229	-375.833435	434.675629
3005.381817	261.371704	-378.229675	443.150238
3005.385082	262.832855	-379.457031	453.670410
3005.388372	264.878418	-381.736389	464.482788
3005.391676	267.157806	-384.015808	475.704285
3005.395001	268.502045	-386.412048	488.503815
3005.398304	270.255402	-388.048462	500.017548
3005.401637	272.359436	-390.503174	511.823517
3005.404993	274.112793	-391.964355	523.980103
3005.408287	275.983063	-393.776184	537.188782
3005.412019	276.976624	-396.055542	550.280518
3005.415314	279.080658	-397.458191	563.196960
3005.418598	280.541779	-398.977783	577.516052
3005.421920	281.944489	-400.322021	592.127380
3005.425203	283.347168	-402.075439	607.615417
3005.428459	284.691406	-402.893616	622.460510
3005.431736	285.568085	-404.413208	637.539429
3005.435445	286.737000	-404.471680	654.196350
3005.438761	288.022797	-404.880798	670.327271
3005.442061	288.081238	-405.815918	686.282837
3005.445395	288.431915	-406.400330	702.881348
3005.448685	288.548798	-406.400330	718.603149
3005.451997	288.431915	-406.341919	735.435425
3005.455311	288.431915	-406.049683	752.442993
3005.458615	288.607239	-405.231445	769.859680
3005.461933	287.029236	-404.296326	786.808899
3005.465673	286.327850	-403.361206	803.290466
3005.468963	285.626526	-401.374023	820.824036
3005.472290	284.516083	-399.503784	838.883667
3005.475556	282.996490	-397.925781	855.306824
3005.478890	281.944489	-394.886597	872.548218
3005.482259	280.132660	-392.373474	889.789612
3005.485525	278.145538	-389.743408	907.323181
3005.488861	276.041504	-386.002930	922.986511
3005.492177	274.054352	-382.379333	940.169434
3005.495481	272.008759	-378.697266	957.878418
3005.498808	269.612518	-373.787842	973.307983
3005.502493	267.274689	-369.053772	989.146729
3005.505808	264.936890	-363.910583	1005.277527
3005.509112	261.897705	-358.825806	1021.817627
3005.512429	258.274109	-352.864441	1037.364136
3005.515793	254.767365	-346.376953	1052.150757
3005.519110	250.734634	-339.012878	1067.229614
3005.522394	247.052597	-331.356506	1082.600830
3005.525719	242.902969	-323.700195	1097.329102
3005.528963	237.701340	-315.693176	1110.771484
3005.532729	233.610153	-306.575684	1123.863281
3005.536050	227.414963	-297.107544	1138.357666
3005.539341	222.330215	-287.639404	1151.098755
3005.542614	216.310333	-277.586792	1163.372192
3005.545910	210.056686	-266.715942	1175.411987
3005.549254	202.809464	-255.728226	1187.276489
3005.552640	196.497360	-244.506729	1196.802979
3005.555961	189.133255	-231.940964	1206.855591
3005.559237	181.360016	-220.368790	1216.499146
3005.562514	173.119232	-207.627701	1225.499756
3005.566249	164.819977	-194.068390	1233.682129
3005.569556	156.345413	-180.859726	1240.636963
3005.572838	147.344818	-166.949738	1245.838623
3005.576137	137.935120	-153.098190	1251.098755
3005.579467	128.817642	-137.668610	1257.001709
3005.582754	119.115723	-123.291061	1259.807129
3005.586124	108.712448	-107.919922	1262.787842
3005.589400	98.835182	-92.607254	1263.839844
3005.592740	88.841026	-77.236122	1264.833374
3005.595979	78.203972	-61.280533	1265.476318
3005.599730	67.508476	-45.617187	1263.138550
3005.603391	57.222092	-29.778492	1262.495605
3005.606719	47.403275	-13.764465	1259.281128
3005.610057	37.467560	1.080654	1255.423706
3005.613417	27.005844	17.094681	1250.806519
3005.616719	16.836353	33.284042	1245.604858
3005.620051	7.251314	49.298073	1239.935669
3005.623383	-2.625950	64.961426	1233.798950
3005.626739	-11.860315	80.741669	1226.201050
3005.630051	-20.977789	95.879021	1218.661621
3005.633385	-30.212156	111.016365	1209.310303
3005.636717	-39.212746	126.095268	1201.536987
3005.640049	-48.096436	141.933960	1190.958496
3005.643384	-56.161896	156.369949	1180.672119
3005.646717	-65.104034	170.689072	1169.976562
3005.650046	-73.227936	185.066620	1159.047363
3005.653378	-80.825829	199.444183	1146.656860
3005.656735	-88.131500	213.120392	1134.266479
3005.660091	-96.898308	226.796600	1120.940918
3005.663378	-104.262413	239.245483	1108.024536
3005.666713	-111.568077	252.687897	1094.582031
3005.670064	-118.815315	264.610779	1080.672119
3005.673381	-126.004097	277.702515	1065.710083
3005.676706	-132.725311	288.982483	1051.098755
3005.680048	-139.680313	300.729980	1035.902954
3005.683383	-146.050858	311.659241	1021.525391
3005.686715	-152.304504	323.406799	1004.926880
3005.690047	-159.142609	333.400940	988.737610
3005.693373	-165.104034	343.570435	973.249512
3005.696706	-171.065460	352.980103	956.534180
3005.700069	-176.442429	362.097595	938.708313
3005.703374	-181.760971	370.805969	921.700745
3005.706714	-186.787262	378.754517	905.628296
3005.710043	-191.930466	386.469299	888.094604
3005.713380	-196.606079	393.658081	871.087097
3005.716707	-201.632385	400.379333	854.020996
3005.720036	-205.372879	406.106934	837.188721
3005.723375	-209.230286	412.009949	820.999451
3005.726738	-211.801880	417.386902	805.277527
3005.730462	-216.068390	422.413208	788.270020
3005.733800	-219.107559	426.270630	772.022217
3005.737136	-222.263596	429.952637	756.008179
3005.740467	-224.835175	433.225586	739.994141
3005.743819	-226.997665	436.732300	725.149048
3005.747127	-229.335480	439.654602	710.303894
3005.750463	-231.381073	442.518372	694.348267
3005.753819	-232.433075	444.154907	679.444763
3005.757150	-233.601990	446.025146	665.943848
3005.760473	-235.121582	447.486267	651.332520
3005.763795	-235.822906	448.012268	637.247192
3005.767134	-236.816498	449.765625	623.863220
3005.770454	-237.810059	450.057861	610.245422
3005.773788	-237.634735	449.824097	597.328979
3005.777135	-238.394531	449.590332	583.419067
3005.780458	-238.862091	449.356506	570.444153
3005.783786	-238.219177	449.414917	558.229065
3005.787148	-237.985382	449.648743	546.773804
3005.790480	-238.336060	448.655212	535.435425
3005.793812	-237.751617	447.661621	522.752747
3005.797132	-237.050262	445.849792	511.355988
3005.800463	-236.991821	445.499084	500.134399
3005.804240	-237.050262	444.037964	488.796021
3005.807548	-235.822906	442.284668	477.106934
3005.810906	-234.537109	440.297485	465.651703
3005.814229	-233.485107	438.310364	455.248383
3005.817610	-232.842194	436.089417	444.085358
3005.820969	-232.257751	433.576294	433.798981
3005.824257	-231.205719	431.822876	423.746338
3005.827543	-230.329071	429.485107	413.167755
3005.830889	-229.393921	426.445923	403.115173
3005.834232	-228.751038	424.575684	393.354767
3005.837569	-227.231445	421.594971	384.003510
3005.840937	-226.296326	418.205139	374.827576
3005.844283	-224.718307	415.458252	366.119232
3005.847599	-223.490952	412.360596	356.767975
3005.850879	-222.438934	409.789001	347.592072
3005.854217	-221.270035	406.223816	339.234375
3005.857553	-219.925781	402.717163	332.045593
3005.860920	-218.756866	400.320862	324.038605
3005.864304	-217.938629	396.346619	315.271759
3005.867657	-216.652847	393.891907	308.609009
3005.870962	-214.957932	390.677368	300.718903
3005.874232	-214.139694	387.053772	294.523682
3005.877537	-212.503220	384.014587	287.627106
3005.881312	-211.451202	380.741638	281.081238
3005.884698	-210.223862	378.053162	274.535370
3005.887632	-208.821182	374.897156	268.223267
3005.890956	-207.360031	371.857971	262.904755
3005.894697	-205.782013	368.409729	256.300415
3005.897993	-204.262421	365.838135	251.098770
3005.901311	-202.684402	363.149597	245.780228
3005.904763	-201.281708	360.344238	241.104599
3005.908074	-199.995926	357.188171	236.428970
3005.911423	-199.002335	354.850403	232.396240
3005.914760	-197.132080	351.635864	227.253052
3005.918057	-195.904724	350.174744	222.928101
3005.921335	-194.443604	346.609558	218.895386
3005.924696	-192.807144	343.979553	213.869064
3005.928042	-191.638229	341.583313	210.187027
3005.931383	-190.469330	338.368774	206.446503
3005.934695	-188.774414	336.907654	202.238434
3005.937978	-187.371735	333.868469	199.199295
3005.941326	-186.144379	331.063110	195.108109
3005.944686	-184.449463	329.134460	191.367615
3005.948082	-183.339005	325.978394	187.685562
3005.951402	-182.637634	324.341919	183.302155
3005.954758	-180.884293	321.828796	180.613678
3005.958099	-179.656937	319.490967	176.931610
3005.961481	-178.663376	316.627136	174.009354
3005.964761	-177.494446	314.406189	170.561066
3005.968043	-176.150208	312.652832	167.638809
3005.971360	-175.390427	309.964355	164.365860
3005.975076	-174.104614	307.801880	160.976028
3005.978396	-173.227951	305.171814	158.229095
3005.981686	-172.292831	302.950928	156.534180
3005.984968	-171.357697	301.489807	152.852127
3005.988278	-170.013443	299.035095	149.988312
3005.991557	-169.253662	296.638794	147.825821
3005.994870	-168.026306	294.593201	145.254227
3005.998213	-167.266525	292.606079	142.741089
3006.001598	-166.272949	290.735840	140.344818
3006.004886	-165.162491	288.982483	138.825241
3006.008598	-164.694931	286.586182	136.487427
3006.011919	-164.052017	285.241943	134.441833
3006.015240	-163.467575	283.430176	132.630035
3006.018530	-162.590897	282.670349	131.344238
3006.021863	-161.655762	280.507874	129.181747
3006.025159	-160.662201	278.637634	128.012848
3006.028485	-160.603745	277.410278	126.317955
3006.031771	-160.311523	275.890686	124.447685
3006.035094	-159.259506	274.897156	123.161896
3006.038415	-158.265930	274.312683	121.817657
3006.042156	-157.623032	272.851562	120.414970
3006.045450	-157.389252	271.974854	119.655174
3006.048781	-156.921692	270.864410	118.369370
3006.052055	-156.278793	269.870819	118.135590
3006.055389	-156.278793	269.344849	116.323784
3006.058753	-155.109879	268.059021	115.680893
3006.062010	-154.466980	267.474579	114.570419
3006.065336	-154.583878	266.422546	114.336639
3006.068634	-154.174759	265.838135	112.817070
3006.071954	-153.765640	265.721222	112.291054
3006.075278	-153.590302	264.376953	111.765045
3006.079009	-153.824097	263.850952	110.596138
3006.082304	-153.122742	263.792511	110.187027
3006.085627	-152.713623	262.915833	109.427231
3006.088959	-152.713623	262.272949	109.310349
3006.092323	-151.895386	261.571594	108.550552
3006.095617	-152.129166	261.279358	107.907661
3006.098941	-151.778488	260.402710	107.440094
3006.102237	-151.544708	260.285797	106.738754
3006.105575	-151.603165	259.701355	105.978958
3006.108848	-151.544708	259.467590	106.680305
3006.112274	-151.486282	258.941528	105.803627
3006.115541	-151.194046	258.357086	105.628281
3006.118850	-151.135605	258.473999	104.342491
3006.122558	-150.317368	258.064880	104.693153
3006.125833	-150.609589	257.538879	104.050262
3006.129162	-150.375809	258.240234	103.816483
3006.132471	-151.310928	257.363525	103.115135
3006.135800	-151.486282	257.363525	103.173584
3006.139094	-151.603165	257.363525	103.582695
3006.142435	-151.720062	256.895966	103.348915
3006.145756	-152.070724	257.363525	103.816483
3006.149026	-152.012268	257.889526	103.407364
3006.152366	-152.421402	257.655762	104.108711
3006.155659	-152.655182	257.597321	104.108711
3006.159426	-152.538284	257.772644	104.459373
3006.162694	-152.888962	257.947998	105.160721
3006.165956	-153.473404	258.649323	105.336067
3006.169291	-153.999420	258.883118	105.978958
3006.172670	-154.466980	259.350677	106.680305
3006.175947	-154.876099	259.292236	107.732323
3006.179245	-155.285233	260.227356	108.667450
3006.182549	-155.577438	260.636475	109.135017
3006.185863	-155.869675	261.104034	110.362358
3006.189201	-156.687912	262.506714	110.362358
3006.192923	-156.337234	263.149597	111.706612
3006.196660	-157.213913	264.552307	112.758621
3006.199996	-157.798370	265.370544	113.927528
3006.203331	-158.967285	266.188782	114.979546
3006.206662	-158.967285	267.240784	116.499123
3006.209992	-159.785507	267.883698	118.194038
3006.213326	-160.194641	269.753967	119.246063
3006.216655	-160.311523	270.163055	121.116310
3006.219988	-161.538879	271.799530	122.343651
3006.223324	-162.064880	272.968445	123.512558
3006.226662	-162.357117	273.026886	124.447685
3006.229992	-163.642899	274.488037	125.967270
3006.233324	-164.227371	275.890686	127.954414
3006.236666	-164.578033	277.234985	129.532425
3006.239987	-165.980713	278.988281	130.526001
3006.243323	-166.915848	279.514282	132.630035
3006.246657	-167.850967	280.916992	134.149612
3006.249987	-168.610764	282.144348	135.786087
3006.253324	-169.487442	284.014587	136.954987
3006.256656	-170.422562	285.183533	138.474564
3006.260013	-171.416138	286.410889	140.403275
3006.263322	-172.643494	287.872009	142.448853
3006.266679	-173.520187	289.566895	144.728226
3006.269988	-174.221512	290.326721	147.533600
3006.273318	-175.215073	291.963196	149.403839
3006.276656	-177.260681	294.242554	151.157211
3006.280013	-178.195801	295.411438	154.488602
3006.283322	-179.715363	297.515503	156.300400
3006.286659	-180.884293	299.035095	158.579773
3006.289982	-181.936310	300.846863	161.560486
3006.293322	-183.455872	302.132690	164.190536
3006.296647	-184.332565	304.528931	167.171234
3006.299982	-185.384583	307.392761	170.911743
3006.303317	-186.904160	309.321472	173.074219
3006.306649	-188.248398	311.542358	176.697830
3006.310000	-189.767975	313.178833	180.789001
3006.313318	-191.287567	314.873779	184.646408
3006.316648	-192.281128	318.205139	187.685562
3006.319982	-193.800705	320.659851	191.718292
3006.323328	-195.086502	322.880737	195.517227
3006.326652	-196.430756	325.335449	199.842194
3006.329985	-198.593231	327.907104	204.634720
3006.333313	-199.469894	330.770874	208.258316
3006.336646	-201.515503	333.225586	212.641708
3006.340432	-202.859741	335.738770	217.668030
3006.343738	-204.846878	338.777893	221.992966
3006.347070	-206.191132	341.115723	225.908829
3006.350406	-207.827591	343.804199	232.337814
3006.353753	-209.171844	346.434265	237.013428
3006.357078	-210.516068	349.064270	242.916412
3006.360420	-212.327881	352.103455	248.351837
3006.363749	-213.789001	354.791931	253.728821
3006.367073	-215.367050	357.421936	258.579803
3006.370406	-217.237305	359.993591	263.722992
3006.373740	-218.230865	362.214478	269.158417
3006.377070	-220.218018	365.136780	276.171844
3006.380403	-221.971375	367.825256	281.548798
3006.383744	-223.315613	370.221497	287.334900
3006.387075	-225.361206	373.026917	293.939209
3006.390417	-226.880783	375.773804	301.011139
3006.393749	-229.218597	378.579163	307.907654
3006.397093	-230.738159	380.916992	314.453552
3006.400392	-232.783783	383.313293	320.882538
3006.403737	-234.537109	385.768005	328.129761
3006.407070	-235.998260	388.573364	336.019897
3006.410392	-238.160736	390.560486	343.676239
3006.413728	-240.498535	393.190552	351.507904
3006.417068	-241.784332	395.937439	359.514923
3006.420839	-243.479248	398.216858	367.346588
3006.424243	-245.641724	400.846863	375.821167
3006.427574	-247.453552	403.476929	384.704865
3006.430820	-248.973145	404.938049	393.939209
3006.434159	-250.668060	408.035645	403.056702
3006.437480	-252.362946	409.613647	412.057281
3006.440835	-253.414978	412.009949	422.168335
3006.444195	-255.402100	413.880188	432.045593
3006.447548	-256.454132	415.750427	443.033295
3006.450889	-258.441284	417.620667	453.495056
3006.454200	-259.493286	419.607849	463.489197
3006.457478	-260.311523	421.419617	475.528961
3006.460808	-261.538849	422.939209	487.627106
3006.464213	-262.181793	423.465210	499.199280
3006.467499	-264.052032	425.218628	511.355988
3006.470906	-263.935120	425.919922	522.869629
3006.474222	-265.045593	427.088867	535.902954
3006.477546	-265.454712	427.614868	548.585632
3006.480823	-266.039154	428.199341	561.735840
3006.484154	-266.623627	428.374634	574.184692
3006.487472	-266.331390	427.848633	587.568665
3006.490832	-267.208069	427.673340	601.127991
3006.494162	-267.324982	427.264160	614.511963
3006.497541	-267.032745	426.445923	627.895935
3006.500880	-266.448273	425.627686	642.273499
3006.504572	-265.922272	424.283447	656.826416
3006.507955	-266.039154	423.114563	670.268799
3006.511307	-265.630066	421.127441	684.646362
3006.514643	-265.104034	418.205139	699.491516
3006.517983	-263.876709	415.808899	712.524780
3006.521293	-262.824677	413.354187	726.902405
3006.524579	-261.714233	410.256592	742.448792
3006.527914	-260.428406	406.223816	757.527710
3006.531324	-259.843964	401.840454	772.255981
3006.534637	-258.090576	397.924622	787.159546
3006.537983	-256.571014	393.248962	802.179993
3006.541318	-254.291656	387.638245	817.609619
3006.544630	-252.304504	382.845703	833.097534
3006.547920	-250.375824	376.592041	848.819336
3006.551298	-247.804199	370.513733	864.307434
3006.554628	-245.524872	363.850952	880.730530
3006.558000	-242.251892	356.603760	894.991211
3006.561324	-239.621887	349.005859	911.239075
3006.564649	-235.822906	340.998840	925.967224
3006.567947	-231.848633	333.634705	941.922852
3006.571310	-227.815918	324.458801	959.514893
3006.574685	-223.666290	314.932190	974.243103
3006.577978	-218.230865	305.464050	989.906494
3006.581702	-213.847473	295.528320	1005.803589
3006.585037	-208.996506	285.943298	1020.298035
3006.588364	-203.561096	275.540039	1034.909302
3006.591657	-197.015213	264.376953	1050.046753
3006.594953	-191.053772	253.272354	1064.833374
3006.598288	-184.800125	241.992401	1079.444702
3006.601584	-177.728241	229.718872	1094.114502
3006.604912	-170.948578	217.679138	1107.790771
3006.608255	-163.233795	204.061371	1121.116211
3006.611541	-156.512573	191.378723	1134.617187
3006.614862	-148.096436	177.585617	1147.124512
3006.618604	-140.147873	163.909409	1160.216187
3006.621873	-131.965530	150.174759	1172.548218
3006.625195	-123.958504	135.680298	1183.126831
3006.628469	-115.834602	121.244308	1192.127441
3006.631769	-106.892464	106.457626	1203.232056
3006.635110	-98.476326	92.430740	1211.881958
3006.638424	-89.475739	77.936295	1220.414917
3006.641759	-80.475151	63.208065	1228.655762
3006.645087	-72.175926	48.012272	1236.312134
3006.648393	-63.175331	32.991817	1243.325562
3006.651715	-54.233192	17.854471	1249.286987
3006.655421	-45.524841	3.067797	1255.189941
3006.658693	-36.465805	-12.127995	1259.807129
3006.662007	-27.289888	-26.680889	1264.132080
3006.665308	-18.815313	-42.110458	1267.814209
3006.668613	-9.405611	-56.371124	1270.444092
3006.671983	-1.047926	-71.566917	1271.671509
3006.675274	7.601986	-86.236710	1273.366455
3006.678568	16.135008	-101.140266	1274.827637
3006.681870	24.492693	-114.758026	1273.424927
3006.685209	33.902397	-129.077148	1273.015747
3006.688949	42.201637	-143.162476	1272.314453
3006.692227	50.851547	-156.780243	1270.093506
3006.695529	59.092342	-170.339569	1265.710083
