time (s)	magX	magY	magZ
6234.638021	-36.056694	-47.019875	-1128.270020
6234.641392	-30.913500	-62.800117	-1129.497437
6234.644712	-25.536531	-77.879013	-1130.724731
6234.647967	-20.159555	-93.425484	-1130.607910
6234.651324	-14.899477	-109.264175	-1130.900146
6234.654628	-8.879602	-124.167740	-1128.796143
6234.657974	-3.151957	-138.311508	-1128.737671
6234.661324	2.692575	-153.331970	-1125.289307
6234.664695	9.296902	-168.060196	-1122.133301
6234.668051	15.258327	-181.619522	-1118.568115
6234.671303	21.804207	-194.360611	-1112.898926
6234.674628	29.343658	-208.153702	-1107.872559
6234.677959	35.246639	-220.602570	-1101.385254
6234.681327	42.084743	-232.759201	-1094.430176
6234.684644	47.929279	-244.623611	-1087.650513
6234.688021	54.241379	-256.137329	-1079.117432
6234.691380	59.735241	-267.241943	-1070.116943
6234.694661	65.872002	-277.294556	-1060.414917
6234.698389	72.184105	-288.516052	-1051.180664
6234.701736	77.035065	-297.750427	-1041.128052
6234.705129	82.587372	-306.458801	-1030.607910
6234.708061	86.678551	-315.167175	-1020.087708
6234.711811	91.587959	-323.700195	-1008.515564
6234.715083	96.380486	-331.765625	-997.469299
6234.718406	99.887199	-340.064880	-984.845154
6234.721805	103.686150	-346.844543	-973.798950
6234.725158	106.549973	-354.033325	-961.583862
6234.728462	109.472237	-361.163635	-949.661072
6234.731780	112.452950	-367.592651	-936.627747
6234.735057	114.732323	-372.735840	-923.769775
6234.738430	116.018120	-377.937439	-911.145569
6234.741797	118.005264	-383.489807	-898.112183
6234.745116	119.524841	-388.516052	-885.078918
6234.748457	121.161308	-393.717712	-871.344299
6234.751813	122.680885	-398.218018	-857.609619
6234.755103	123.499123	-402.718262	-844.459412
6234.758396	124.258919	-406.867920	-829.789612
6234.761810	126.304497	-409.848633	-816.113342
6234.765139	126.596725	-413.238464	-801.502075
6234.768486	127.531853	-416.336060	-788.351868
6234.771760	128.759201	-418.673889	-772.863831
6234.775563	129.635895	-421.829895	-759.129211
6234.778866	130.571014	-423.174194	-744.926941
6234.782195	131.389236	-425.395081	-729.731201
6234.785468	132.207489	-427.382202	-716.171814
6234.788787	133.727051	-427.966675	-701.735840
6234.792053	134.662186	-428.668030	-688.059631
6234.795396	136.240204	-429.427856	-673.156067
6234.798651	137.935120	-430.713623	-659.713623
6234.801919	138.636459	-430.304504	-646.037415
6234.805675	139.513153	-430.772034	-631.542969
6234.808951	140.915848	-430.655151	-617.749878
6234.812302	141.909409	-429.252441	-604.015198
6234.815590	143.019867	-429.252441	-590.397461
6234.818912	144.013428	-428.142029	-575.727661
6234.822198	144.773224	-426.564026	-563.629456
6234.825527	146.175919	-425.336609	-551.063721
6234.828811	147.111038	-423.466370	-538.030396
6234.832139	147.520172	-422.472839	-526.107544
6234.835470	149.390411	-421.070129	-514.301575
6234.839188	149.098190	-418.557007	-503.021637
6234.842477	149.156631	-417.095825	-491.274078
6234.845742	149.857986	-415.634705	-481.279968
6234.848994	150.325546	-413.647583	-470.116852
6234.852332	150.383972	-411.835754	-459.362946
6234.855600	150.033310	-409.907104	-450.420807
6234.859333	149.507309	-407.043274	-440.485107
6234.862614	149.741089	-404.530090	-431.075378
6234.865882	148.864410	-403.010559	-421.139679
6234.869200	147.812378	-400.789551	-412.372894
6234.872500	146.760376	-398.451782	-404.248962
6234.875772	145.357681	-396.756897	-396.417297
6234.879059	145.299240	-394.769714	-387.475128
6234.882753	143.896545	-392.665710	-379.643463
6234.886124	143.312088	-390.386353	-372.630035
6234.889407	142.318527	-388.282288	-365.499695
6234.892693	141.441833	-386.587341	-357.609558
6234.895968	140.097595	-383.723572	-350.479248
6234.899258	139.454697	-382.087097	-343.874908
6234.902578	137.935120	-379.690796	-336.627686
6234.905848	137.526001	-377.119263	-329.497375
6234.909248	136.181763	-375.248962	-322.834595
6234.912553	135.305069	-373.261841	-316.522491
6234.916261	134.136169	-371.450012	-310.444183
6234.919533	132.791931	-368.644653	-303.664520
6234.922897	132.499695	-365.897705	-297.293976
6234.926178	131.856812	-363.442993	-290.981873
6234.929477	131.038574	-361.222107	-284.845123
6234.932746	130.571014	-359.293396	-279.409698
6234.936018	130.395676	-356.780273	-273.389832
6234.939781	130.044998	-353.974854	-267.194611
6234.943075	129.635895	-351.403259	-262.051422
6234.946388	129.226761	-348.948608	-256.031555
6234.949675	128.992981	-346.201660	-250.713043
6234.953001	128.583862	-344.156067	-245.628281
6234.956269	128.057861	-341.292236	-240.718887
6234.959605	128.057861	-338.428406	-236.569260
6234.962964	127.999420	-336.207520	-231.542969
6234.966243	127.882523	-333.928101	-226.633545
6234.969527	127.473404	-331.122742	-221.665695
6234.973257	127.414963	-329.194031	-217.983658
6234.976574	126.655174	-327.090027	-214.184692
6234.979886	127.005844	-325.102844	-210.093521
6234.983152	126.596725	-322.589722	-206.937485
6234.986426	125.603157	-320.719482	-203.196976
6234.989681	125.603157	-318.089417	-199.807129
6234.992994	124.784920	-316.452942	-196.943314
6234.996740	124.258919	-314.933350	-194.021042
6235.000415	124.317360	-313.063110	-191.274124
6235.003748	123.616013	-312.127991	-187.884277
6235.007096	123.206902	-310.082397	-185.897156
6235.010408	122.271774	-308.679749	-183.734665
6235.013745	121.921104	-307.393921	-180.578613
6235.017076	121.102867	-305.932800	-178.533035
6235.020414	120.459969	-304.354797	-175.902985
6235.023746	119.875511	-303.302734	-174.500305
6235.027073	119.232613	-302.075378	-172.688492
6235.030416	118.648155	-301.023376	-170.642899
6235.033745	117.888374	-300.205139	-168.480438
6235.037074	117.303917	-299.036255	-166.785522
6235.040415	116.777908	-297.575073	-165.441269
6235.043772	115.667450	-296.289307	-164.213913
6235.047072	115.375221	-295.354187	-162.402100
6235.050406	114.790764	-295.237305	-160.356522
6235.053746	114.147873	-294.594360	-159.012283
6235.057076	113.563416	-292.607239	-158.077164
6235.060403	113.095856	-292.022827	-155.563995
6235.063736	112.862068	-291.672119	-154.570435
6235.067070	112.862068	-289.801880	-153.343079
6235.070401	112.336060	-289.100525	-151.765060
6235.073737	111.985390	-287.522522	-150.537704
6235.077070	112.219170	-286.704285	-148.550552
6235.080408	111.985390	-286.061340	-147.206314
6235.083740	111.868500	-284.600220	-145.978958
6235.087108	112.043839	-283.781982	-144.751602
6235.090407	112.336060	-282.729980	-143.641144
6235.093750	112.043839	-282.262451	-142.004684
6235.097068	112.219170	-281.561096	-141.069550
6235.100403	112.452950	-280.392151	-140.485107
6235.103735	112.511398	-279.457031	-139.082428
6235.107068	112.803627	-278.580383	-138.205734
6235.110404	112.277618	-277.820557	-137.095276
6235.113740	112.862068	-277.528320	-137.153717
6235.117062	113.563416	-277.002319	-136.043259
6235.120402	113.504967	-276.417908	-134.815903
6235.123733	114.089424	-275.891907	-134.465225
6235.127068	113.388077	-275.424316	-134.465225
6235.130420	114.147873	-275.482727	-134.173004
6235.134177	113.914085	-275.482727	-134.231445
6235.137507	113.504967	-275.891907	-134.523682
6235.140830	114.264763	-275.365845	-133.939224
6235.144159	113.914085	-275.248962	-134.173004
6235.147493	113.738747	-275.950317	-134.757462
6235.150831	113.563416	-275.833435	-134.582123
6235.154153	113.388077	-276.710083	-135.225021
6235.157490	113.212746	-276.651672	-135.751038
6235.160826	112.862068	-277.119263	-137.270599
6235.164165	113.329636	-277.528320	-137.095276
6235.167507	112.978966	-277.937439	-138.381058
6235.170838	112.569839	-278.931030	-138.848633
6235.174204	112.745178	-279.515503	-139.783768
6235.177487	112.452950	-280.158386	-140.835770
6235.180839	112.102280	-280.742859	-141.128006
6235.184158	112.628288	-281.035095	-143.115143
6235.187487	112.920517	-281.736389	-143.524261
6235.190816	112.219170	-282.437744	-144.225616
6235.194155	112.862068	-283.080627	-144.634720
6235.197523	113.095856	-284.483337	-145.803635
6235.200832	113.212746	-284.483337	-146.271194
6235.204173	113.095856	-285.184692	-148.024567
6235.207900	113.621857	-285.535339	-149.251907
6235.210846	114.147873	-286.412048	-150.187027
6235.214580	113.797195	-287.288696	-150.946823
6235.217971	114.966103	-287.873169	-151.355942
6235.221262	115.082993	-288.632996	-152.700180
6235.224667	115.609001	-289.100525	-153.693741
6235.227989	115.667450	-289.392761	-154.979553
6235.231304	116.836357	-290.327881	-155.797775
6235.234571	117.537697	-291.321472	-157.375809
6235.237916	117.946815	-291.905884	-158.895386
6235.241229	118.239044	-292.782593	-160.473419
6235.244581	119.992401	-293.308594	-161.350098
6235.247924	120.518417	-294.594360	-162.811234
6235.251379	121.102867	-295.763306	-164.155472
6235.254649	121.862656	-296.523071	-165.675064
6235.257903	122.447105	-296.581543	-168.246658
6235.261285	123.849792	-298.627136	-169.707779
6235.264567	124.142021	-299.854492	-172.454712
6235.267938	125.135590	-301.257141	-174.208069
6235.271257	125.427818	-302.250732	-177.422577
6235.274662	126.596725	-304.237854	-179.175919
6235.277984	126.538277	-305.465210	-182.215088
6235.281241	127.181183	-307.452393	-185.604919
6235.285002	127.765633	-308.971985	-188.819412
6235.288334	127.824074	-310.842224	-190.981888
6235.291750	128.233200	-312.770874	-195.365280
6235.294703	129.051422	-314.407349	-199.690247
6235.297976	129.694321	-316.978943	-202.846283
6235.301663	129.635895	-318.732300	-206.937485
6235.305012	130.804794	-320.368774	-209.918198
6235.308394	130.629456	-322.940369	-214.769150
6235.311758	131.213913	-324.752197	-218.684982
6235.315089	131.798355	-327.557556	-223.068375
6235.318411	132.324371	-329.486267	-227.393341
6235.321767	132.908829	-331.882507	-231.309174
6235.325046	133.493271	-334.044983	-235.751038
6235.328432	133.610168	-336.090576	-240.075989
6235.331728	134.194611	-338.662170	-244.810059
6235.335072	134.253067	-341.116882	-249.251907
6235.338383	134.779083	-343.104004	-254.511978
6235.341714	136.123322	-345.149597	-259.596710
6235.345014	136.941544	-346.786072	-263.571014
6235.348395	138.052017	-349.123901	-268.129730
6235.351733	138.636459	-351.403259	-273.448273
6235.355089	139.571594	-352.513733	-278.591461
6235.358381	140.506714	-355.026917	-284.552887
6235.361691	141.558731	-356.780273	-289.754517
6235.365058	143.136765	-359.234985	-295.248383
6235.368409	144.422562	-361.514282	-300.917572
6235.371756	145.065460	-363.092346	-307.288116
6235.375490	146.701920	-364.728821	-312.431335
6235.378858	147.637054	-366.599060	-319.152527
6235.382158	149.331970	-369.696655	-324.821747
6235.385435	150.500870	-371.450012	-330.841583
6235.388737	151.728226	-373.378723	-338.088837
6235.392028	153.715363	-375.073669	-344.517822
6235.395291	154.884277	-376.943909	-351.355927
6235.398554	156.462311	-378.580383	-358.486267
6235.402269	157.397430	-380.918152	-367.019287
6235.405572	158.449432	-382.846863	-374.500275
6235.408866	159.443008	-384.892456	-382.215088
6235.412182	159.735245	-386.938049	-390.981873
6235.415446	161.488602	-388.808289	-399.573334
6235.418773	161.663925	-391.029236	-408.866119
6235.422070	162.306839	-393.250183	-418.509644
6235.425769	163.534180	-395.471069	-427.393341
6235.429086	164.527756	-397.516663	-437.270599
6235.432364	164.410873	-400.029846	-447.556976
6235.435706	164.878433	-402.484497	-458.895355
6235.438967	164.761536	-403.828735	-469.824646
6235.442347	165.053757	-405.582092	-479.935699
6235.445629	165.696655	-407.335449	-491.975464
6235.448941	165.755112	-409.907104	-502.378723
6235.452252	165.229095	-411.017517	-514.067810
6235.455999	164.586197	-412.420227	-525.873779
6235.459270	165.170654	-413.530640	-538.264160
6235.462538	165.112213	-415.400940	-550.245544
6235.465830	165.521332	-416.277649	-562.577454
6235.469123	164.469299	-416.628296	-574.558777
6235.472405	165.287537	-417.855652	-587.241394
6235.475759	164.995316	-418.557007	-599.690247
6235.479079	164.469299	-418.264771	-612.606689
6235.482394	165.287537	-418.849182	-624.763367
6235.486137	164.527756	-418.732361	-638.205750
6235.489495	164.936859	-418.381653	-650.070129
6235.492764	164.878433	-418.673889	-662.635864
6235.496070	165.462875	-417.446472	-676.019897
6235.499328	165.696655	-416.686768	-688.118042
6235.502611	165.696655	-415.050232	-701.794312
6235.505891	166.164215	-414.641113	-713.834045
6235.509200	166.456451	-412.595520	-726.399780
6235.512530	166.573349	-411.368225	-738.673279
6235.516253	167.274689	-408.855042	-752.291077
6235.519531	166.514893	-406.984802	-764.915283
6235.522821	166.281113	-404.004089	-778.357666
6235.526073	166.339569	-401.666260	-791.683228
6235.529429	166.047333	-398.568665	-804.307434
6235.532703	165.988892	-394.828186	-817.516113
6235.536056	165.053757	-391.379883	-831.017029
6235.539329	164.352417	-387.230286	-844.751648
6235.542676	163.767960	-383.431335	-857.901855
6235.546412	162.248383	-379.457031	-871.928711
6235.549748	160.319687	-374.664551	-884.728210
6235.553019	158.800110	-369.813538	-898.462952
6235.556269	156.812973	-364.144348	-912.022217
6235.559522	154.592041	-358.416687	-925.113953
6235.562875	151.728226	-352.572205	-938.439575
6235.566150	148.864410	-346.435425	-951.005249
6235.569915	145.357681	-339.772644	-963.804810
6235.573205	141.734070	-332.116272	-975.493896
6235.576523	138.344238	-325.102844	-988.001160
6235.579794	134.545303	-317.563416	-1000.274719
6235.583124	130.863235	-309.673279	-1011.379333
6235.586429	126.246056	-300.964905	-1022.367065
6235.589703	122.037994	-292.782593	-1033.120972
6235.593007	117.771477	-283.139099	-1042.764404
6235.596702	113.212746	-273.554077	-1054.102905
6235.600354	108.653999	-263.852112	-1062.694336
6235.603687	103.803040	-253.799545	-1071.227295
6235.607015	98.952080	-243.162460	-1078.240845
6235.610352	94.276451	-232.350098	-1086.014038
6235.613686	89.834595	-221.303925	-1092.968994
6235.617019	85.100525	-210.023956	-1099.514893
6235.620353	79.840439	-198.568680	-1104.658081
6235.623685	75.749268	-186.587387	-1110.151978
6235.627018	71.716537	-174.430740	-1112.548218
6235.630369	67.508476	-162.098770	-1118.217407
6235.633723	63.417297	-149.533020	-1122.191650
6235.637017	59.443016	-137.317947	-1124.412598
6235.640349	55.351841	-124.343079	-1126.516724
6235.643682	51.026886	-111.660431	-1128.211548
6235.647012	47.812389	-98.510223	-1129.438965
6235.650351	43.721214	-84.600235	-1129.614258
6235.653687	39.571594	-71.508469	-1129.205078
6235.657014	35.889538	-57.949158	-1128.445312
6235.660346	32.499706	-43.454704	-1127.510254
6235.663680	27.648743	-30.596725	-1125.990723
6235.667011	23.791349	-16.803623	-1123.068359
6235.670342	19.291058	-3.010521	-1121.081299
6235.673703	15.141437	11.133255	-1118.159058
6235.677007	11.108707	25.569258	-1112.898926
6235.680344	6.316189	39.187027	-1108.690796
6235.683675	2.166569	52.687904	-1104.249023
6235.687007	-3.035067	66.422562	-1098.988892
6235.690345	-8.119814	80.975449	-1092.676880
6235.693737	-13.204561	94.067215	-1085.780273
6235.697017	-18.406195	107.568085	-1078.649902
6235.700345	-23.724722	121.536522	-1070.993652
6235.703676	-29.510813	134.862076	-1063.512573
6235.707008	-34.712448	149.064285	-1056.090088
6235.710340	-40.907654	161.571594	-1047.381714
6235.713677	-45.817070	174.195801	-1038.556396
6235.717041	-51.544708	187.112213	-1028.328491
6235.720340	-56.921684	199.736404	-1018.100525
6235.723677	-62.824661	211.951492	-1008.515564
6235.727005	-68.260078	224.049683	-997.235596
6235.730339	-73.169495	235.212753	-986.890686
6235.734099	-78.020454	246.784927	-976.428955
6235.737453	-82.812981	257.363525	-964.506165
6235.740783	-87.547043	267.942139	-953.810669
6235.744119	-92.105782	278.579163	-941.829407
6235.747435	-95.787834	288.748718	-929.906555
6235.750762	-99.469902	298.742859	-918.685059
6235.754097	-102.801292	307.509644	-907.580383
6235.757436	-105.898888	317.211548	-896.183594
6235.760778	-108.938057	325.861450	-883.325562
6235.764090	-111.801872	333.342529	-870.993591
6235.767429	-114.315025	341.817078	-859.362976
6235.770783	-116.652840	349.590271	-847.849243
6235.774111	-118.523094	356.545288	-835.283447
6235.777460	-120.451790	363.850952	-824.061951
6235.780759	-121.971367	369.695496	-811.671509
6235.784092	-123.607826	376.825806	-800.274719
6235.787425	-124.835182	383.371704	-788.877869
6235.790792	-126.588554	388.514893	-777.130371
6235.794086	-126.997658	393.248962	-765.675049
6235.797424	-128.283463	399.268860	-754.512024
6235.800762	-128.575699	404.119812	-742.822937
6235.804116	-129.510818	408.327881	-731.776733
6235.807440	-130.504395	412.769714	-720.555237
6235.810775	-130.855057	416.042664	-709.509094
6235.814521	-131.907074	419.315613	-697.352478
6235.817843	-133.192871	423.231445	-686.072510
6235.821214	-133.835785	425.861450	-675.143250
6235.824534	-134.887787	429.309753	-664.564575
6235.827863	-135.939804	432.348938	-652.817078
6235.831239	-136.991821	434.160706	-641.303345
6235.834631	-138.336075	435.855652	-631.016968
6235.837843	-138.920517	438.193420	-620.146118
6235.841184	-139.563416	439.479248	-608.281738
6235.844539	-140.907669	441.466370	-597.820007
6235.847863	-141.725891	441.933960	-586.715393
6235.851194	-142.661026	443.395081	-574.617187
6235.854572	-144.355942	443.395081	-564.856812
6235.857913	-144.122162	443.921082	-555.154907
6235.861178	-144.706619	444.563965	-544.868530
6235.864548	-145.875519	444.213318	-533.705444
6235.867843	-146.518417	443.745789	-523.009949
6235.871190	-147.219757	444.680908	-514.301575
6235.874524	-147.921112	444.388672	-505.359406
6235.877936	-147.921112	443.570435	-495.014587
6235.881264	-148.447113	442.810669	-485.254242
6235.884931	-148.388672	442.459961	-476.078339
6235.888317	-148.797791	441.641724	-467.954407
6235.891679	-147.804214	441.407959	-459.246033
6235.895002	-147.979553	440.005249	-452.232605
6235.897967	-147.687332	438.193420	-443.407349
6235.901676	-147.687332	436.966125	-435.400360
6235.904949	-147.161316	436.673828	-427.919342
6235.908349	-146.459976	435.388062	-420.204559
6235.911677	-145.466400	434.160706	-412.898895
6235.915005	-144.589722	432.524292	-406.119202
6235.918342	-143.537704	431.355347	-398.813538
6235.921675	-142.894806	430.478699	-392.793701
6235.925034	-142.193451	428.666870	-386.306244
6235.928297	-141.024551	427.731750	-380.169464
6235.931676	-140.323212	425.510803	-374.441833
6235.935005	-139.446533	423.465210	-368.714203
6235.938347	-138.920517	422.179443	-363.044983
6235.941631	-137.693161	420.601379	-357.083557
6235.944947	-136.699600	419.432495	-351.998810
6235.948356	-135.589127	417.562256	-346.212738
6235.951692	-135.355347	415.925781	-340.952637
6235.955029	-135.063141	414.406189	-335.517212
6235.958304	-134.127991	412.302185	-330.198700
6235.962023	-133.426651	410.782593	-325.230835
6235.965382	-133.075989	408.795471	-319.620087
6235.968648	-132.257751	406.223816	-315.119812
6235.971944	-131.731750	405.288696	-310.794830
6235.975225	-131.205734	402.658691	-305.184082
6235.978453	-130.270615	401.080627	-299.281097
6235.982221	-130.095276	398.976624	-294.663940
6235.985528	-130.270615	396.931030	-290.046753
6235.988799	-129.686157	394.827026	-286.014008
6235.992093	-128.984802	392.664551	-281.396820
6235.995389	-128.809479	390.151367	-276.604340
6235.998651	-128.984802	388.281128	-272.746918
6236.002369	-128.692596	386.118652	-267.895966
6236.005670	-128.283463	384.949707	-264.038574
6236.008946	-127.815895	381.968994	-260.181183
6236.012253	-127.348335	380.040344	-256.265350
6236.015544	-127.699013	378.579163	-253.284653
6236.018792	-127.172997	375.481628	-249.251907
6236.022127	-126.588554	373.903564	-244.985397
6236.025822	-126.237877	371.974854	-242.238480
6236.029089	-125.361198	371.098206	-239.374634
6236.032422	-125.010521	368.818848	-236.452362
6236.035681	-124.367622	366.714783	-233.646988
6236.039031	-123.783165	365.955017	-231.016953
6236.042278	-123.549385	364.376953	-228.737595
6236.045558	-122.848030	363.324951	-225.932220
6236.049292	-122.322044	361.454712	-223.243713
6236.052575	-121.445351	360.402710	-221.256592
6236.055870	-120.919350	359.175354	-219.853897
6236.059140	-120.276436	358.298645	-217.282303
