crossing time (s)	slope (V/s)	crossing number
2619.441390	-83.448577	156
2620.502500	-61.627039	157
2621.533510	-47.406299	158
2622.565281	-35.982463	159
2623.591837	-26.769798	160
2624.589730	-21.116327	161
2625.667611	-15.643273	162
2626.658461	-12.156872	163
2627.751004	-10.246419	164
2628.725547	-4.474225	165
2629.794231	-5.523645	166
2630.756351	-3.478426	167
2631.875417	-2.080550	168
2632.877814	-2.627425	169
2633.907223	-2.421200	170
2634.905207	-1.337461	171
