time (s)	magX	magY	magZ
3528.245293	293.750427	-347.019897	862.495605
3528.248675	295.796021	-352.104614	843.968384
3528.251987	297.315613	-356.312683	824.272339
3528.255367	298.601379	-360.053162	806.095825
3528.258713	299.185852	-363.968994	787.510193
3528.261967	299.770325	-367.066650	768.866089
3528.265298	300.004089	-369.813538	750.981873
3528.268625	300.237885	-371.450012	732.454712
3528.271979	299.711853	-373.378723	714.453491
3528.275308	299.244293	-374.606079	697.738159
3528.278697	299.244293	-375.833435	679.853882
3528.282058	297.958496	-376.768555	662.437134
3528.285359	297.666260	-377.119263	646.773804
3528.288628	296.029816	-377.528320	630.000000
3528.291989	295.503784	-376.768555	614.921082
3528.295313	293.750427	-376.768555	598.673279
3528.298639	292.698395	-376.943909	582.425476
3528.302051	291.529510	-375.541199	567.054321
3528.305373	289.483917	-374.138550	551.157227
3528.308700	288.607239	-373.261841	536.954956
3528.312377	286.444763	-372.268250	522.577454
3528.315748	284.165405	-370.631775	508.199860
3528.319115	282.295135	-368.527771	494.465240
3528.322468	279.548218	-367.417297	480.263031
3528.325819	278.087067	-365.137939	465.417908
3528.329131	275.340149	-363.033875	452.501465
3528.332444	273.177673	-361.338989	439.818848
3528.335763	270.489166	-358.884277	426.610168
3528.339142	268.677399	-356.546448	414.219757
3528.342470	266.222687	-353.916382	401.420258
3528.345784	264.293976	-351.403259	390.666290
3528.349069	261.137909	-349.533020	377.632965
3528.352408	258.800110	-346.727661	367.054352
3528.355774	256.228516	-343.513184	355.774414
3528.359124	253.481583	-341.058472	344.611359
3528.362472	250.559311	-337.902405	334.734070
3528.365809	247.870834	-334.804810	325.090576
3528.369101	245.007019	-331.999451	314.979553
3528.372400	242.552307	-329.252502	305.920532
3528.375797	239.688477	-326.213318	296.569275
3528.379152	236.999985	-322.881958	287.393341
3528.382475	233.960846	-320.777893	279.269440
3528.385767	230.921677	-317.212708	270.736420
3528.389535	228.350082	-314.407349	263.196960
3528.392844	225.603149	-311.835754	256.475739
3528.396157	223.206894	-308.679749	248.118042
3528.399424	220.869080	-305.815918	241.338394
3528.402728	218.297485	-302.893616	234.675613
3528.406035	215.608994	-299.445374	228.831070
3528.409305	213.621857	-297.341309	222.752762
3528.412623	211.459381	-294.477478	217.025131
3528.415976	208.654007	-291.847473	211.589722
3528.419272	206.316193	-288.691406	205.569839
3528.423029	204.270584	-285.593811	200.426651
3528.426326	201.640564	-283.723572	195.108109
3528.429698	199.594971	-280.450623	190.958496
3528.432939	198.075394	-278.463440	186.867325
3528.436268	195.503799	-275.774963	181.957916
3528.439509	193.925766	-272.911194	177.457611
3528.442786	192.289291	-270.631775	172.255981
3528.446097	190.009933	-267.943298	168.515472
3528.449861	187.789001	-266.248413	164.774979
3528.453138	185.918747	-263.735229	161.034470
3528.456420	185.042068	-260.988281	156.417297
3528.459678	182.587357	-259.644043	153.495026
3528.462938	180.658676	-257.247803	149.579193
3528.466224	178.846863	-255.143753	145.429565
3528.469564	178.028625	-252.922836	141.572174
3528.472922	176.275269	-250.234360	138.883682
3528.476651	174.288132	-248.890121	137.071884
3528.479955	172.417877	-246.786087	132.980698
3528.483326	171.073624	-244.272934	129.766220
3528.486611	169.612503	-241.935104	126.025719
3528.489910	168.268250	-239.655777	123.278778
3528.493202	166.281113	-238.603745	121.233192
3528.496499	164.644653	-236.675049	118.252487
3528.499809	163.008179	-234.804794	115.213326
3528.503130	161.605484	-232.642319	112.875519
3528.506469	160.670364	-231.298065	111.063698
3528.509781	159.209229	-229.544724	107.849213
3528.513493	157.923431	-227.966690	105.628281
3528.516833	156.228531	-226.154877	103.874931
3528.520103	155.234955	-224.693756	101.887779
3528.523459	153.832260	-223.407944	99.608414
3528.526737	152.897141	-221.888382	98.322624
3528.530021	151.845108	-221.011688	96.627701
3528.533304	150.383972	-219.492111	95.341904
3528.537032	149.331970	-218.440079	93.646996
3528.540374	147.812378	-217.680313	92.594978
3528.543640	146.877258	-216.511398	91.776741
3528.546901	146.059036	-215.517838	89.614258
3528.550195	145.182343	-214.699585	87.744011
3528.553441	144.481003	-213.647583	86.925774
3528.556722	143.428986	-212.303329	85.815308
3528.560499	143.019867	-212.011108	84.587959
3528.563788	141.850967	-211.251312	83.535950
3528.567080	141.032730	-210.023956	83.185272
3528.570375	140.448273	-209.264160	82.191704
3528.573719	140.331375	-208.387497	81.431915
3528.577008	139.220917	-207.744598	80.964348
3528.580432	139.220917	-207.043243	79.912338
3528.583711	138.870239	-206.166565	79.503212
3528.586959	138.110458	-205.757462	78.801872
3528.590664	137.935120	-205.172989	78.568092
3528.594411	137.818237	-204.822327	77.516075
3528.597785	137.584457	-204.237869	76.931618
3528.601079	137.175323	-203.945648	75.821159
3528.604413	136.064865	-203.185852	75.295151
3528.607752	135.714203	-203.127411	75.470482
3528.611091	135.363525	-202.776749	74.418465
3528.614415	135.071289	-202.075394	74.301575
3528.617746	135.129745	-201.666290	73.366455
3528.621083	134.311508	-201.023361	72.781998
3528.624407	133.960831	-201.023361	72.665108
3528.627737	133.785507	-200.614273	72.431328
3528.631079	132.967270	-200.731155	71.496201
3528.634405	133.201050	-200.205139	72.255997
3528.637752	133.025711	-200.614273	71.729980
3528.641097	132.616592	-199.971375	71.203979
3528.644411	132.499695	-200.380478	71.145531
3528.647742	132.207489	-200.322037	70.736412
3528.651082	131.973694	-199.386917	70.561073
3528.654409	131.973694	-199.796036	70.561073
3528.657740	131.915253	-199.854477	70.853302
3528.661075	131.739914	-200.205139	71.320869
3528.664408	132.032135	-200.205139	70.677963
3528.667744	131.798355	-200.964935	70.327293
3528.671072	132.324371	-200.789597	70.677963
3528.674405	132.090591	-200.906494	71.613091
3528.677739	132.265915	-201.958496	71.846870
3528.681068	132.675049	-201.783157	71.613091
3528.684417	132.791931	-202.601410	72.489777
3528.687743	133.551727	-202.893616	72.548218
3528.691070	133.434830	-203.770309	73.249565
3528.694405	134.194611	-204.880768	74.009354
3528.697733	134.369949	-205.698990	74.944481
3528.701084	134.545303	-205.874359	75.528931
3528.704403	134.720627	-206.634125	76.697838
3528.707742	135.363525	-207.627701	77.457626
3528.711067	136.064865	-208.445938	79.035652
3528.714441	136.532425	-209.381058	79.152542
3528.717737	136.883102	-210.023956	80.146118
3528.721073	137.350677	-210.900650	81.256577
3528.724401	138.110458	-211.660431	82.016365
3528.727756	138.928696	-213.121567	83.185272
3528.731067	139.571594	-213.647583	83.886620
3528.734405	139.630035	-214.232025	84.763298
3528.737738	140.565155	-215.693161	86.049095
3528.741070	141.617187	-217.095856	87.451782
3528.744827	142.260086	-218.089417	88.971367
3528.748180	142.727646	-219.375214	89.964935
3528.751511	143.019867	-219.959671	91.542961
3528.754837	143.838104	-221.245468	92.770309
3528.758189	144.422562	-221.829926	94.465225
3528.761496	145.357681	-223.407944	95.692574
3528.764817	146.059036	-224.810623	97.621277
3528.768149	146.877258	-225.804214	98.614845
3528.771503	147.111038	-227.616013	100.075981
3528.774822	148.455292	-228.960251	101.244888
3528.778155	149.624191	-230.538284	103.758034
3528.781488	150.793106	-232.583862	105.452950
3528.784845	151.377548	-233.109879	107.264763
3528.788182	152.488007	-234.804794	109.602577
3528.791538	153.423141	-237.025711	111.239044
3528.794828	154.124481	-239.363541	113.576859
3528.798151	155.351837	-240.941544	115.622444
3528.801519	156.345413	-242.519577	117.668030
3528.804825	158.449432	-244.682053	120.590302
3528.808148	159.150787	-246.844528	123.337227
3528.811484	160.085907	-249.240799	125.382820
3528.814818	161.488602	-250.877274	128.246628
3528.818669	163.125061	-253.098190	131.402679
3528.821987	164.235519	-255.319138	134.909409
3528.825264	165.872009	-257.890686	138.591461
3528.828570	167.157791	-260.170105	142.215073
3528.831905	168.385147	-262.975464	146.247803
3528.835261	169.612503	-265.430176	149.754517
3528.838587	171.599640	-268.001770	153.904144
3528.841991	173.002335	-270.748718	158.579773
3528.845341	174.346573	-272.794250	162.378708
3528.848655	175.924606	-275.716553	166.294556
3528.851903	177.970184	-278.229675	170.970184
3528.855237	179.781982	-281.677979	176.288712
3528.858586	181.710693	-283.957336	179.503204
3528.861942	183.054932	-286.704285	185.347748
3528.865249	184.808289	-289.626526	190.432495
3528.868644	186.327881	-291.672119	195.517227
3528.871985	187.964340	-294.945068	200.952652
3528.875235	189.717697	-297.399780	206.621857
3528.878562	191.646393	-300.731140	212.641708
3528.881914	193.516647	-303.887207	218.544693
3528.885249	194.860886	-306.458801	224.506134
3528.888622	196.789581	-309.614868	230.525986
3528.891994	198.367615	-312.829346	236.428970
3528.895319	200.413208	-315.868530	242.390411
3528.899010	201.932785	-319.024536	248.702499
3528.902361	204.036804	-322.122131	255.131516
3528.905673	205.030380	-325.102844	262.028076
3528.909058	207.543533	-328.726501	269.567505
3528.912404	209.296890	-331.181152	278.100525
3528.915753	210.699585	-335.213928	284.938629
3528.919061	213.037399	-337.960815	292.536530
3528.922350	215.316757	-341.467529	301.654022
3528.925723	216.777893	-344.915833	310.654602
3528.929080	217.946808	-348.247192	319.772064
3528.932438	219.700165	-351.403259	329.064880
3528.935768	221.628876	-354.150208	338.942139
3528.939083	223.323776	-357.481567	348.760986
3528.942372	225.661591	-361.105225	359.164215
3528.945762	226.830490	-364.787231	370.385742
3528.949124	229.109863	-367.709534	381.548798
3528.952409	230.921677	-370.398010	393.237885
3528.955730	232.616592	-374.430725	404.459381
3528.959066	234.194611	-377.177673	416.849792
3528.962344	235.831100	-380.158386	430.058472
3528.965718	237.175323	-383.255981	442.741089
3528.969065	238.870239	-385.886047	456.125061
3528.972850	240.798950	-388.574524	470.561066
3528.976136	241.675613	-391.146118	485.990662
3528.979488	243.312103	-393.542358	500.192871
3528.982755	244.480988	-396.464661	514.687317
3528.986039	245.649918	-398.451782	529.649292
3528.989406	245.883682	-400.731140	546.013977
3528.992708	246.760376	-403.068970	561.326721
3528.996052	247.929260	-404.237854	577.282227
3528.999344	248.572189	-405.465210	593.588501
3529.002674	249.039749	-407.101685	610.245422
3529.005931	248.805954	-407.978394	626.902405
3529.009649	248.981293	-409.147278	644.085327
3529.012921	248.747513	-409.790161	660.391602
3529.016218	248.981293	-410.023926	678.217346
3529.019544	247.812393	-410.608398	694.815857
3529.022832	247.637054	-410.374634	713.109253
3529.026171	246.468140	-409.790161	730.058411
3529.029443	245.533020	-409.556396	748.118042
3529.032793	243.896530	-408.329041	766.119202
3529.036089	241.792511	-407.101685	783.419067
3529.039876	240.506729	-405.523682	802.413757
3529.043164	238.052017	-403.302734	819.888916
3529.046455	235.538864	-400.848022	838.240723
3529.049774	233.084152	-397.984192	857.352356
3529.053070	229.518982	-394.769714	874.710693
3529.056413	226.655167	-391.321472	892.945557
3529.059664	222.973114	-387.288757	911.706543
3529.062911	219.466385	-382.613098	928.772644
3529.066648	215.375214	-377.937439	945.429504
3529.069910	211.342484	-372.326721	964.599609
3529.073184	206.491516	-366.306824	982.250122
3529.076544	200.822327	-359.994751	999.199280
3529.079814	195.679123	-353.039734	1015.096375
3529.083174	190.185257	-345.383423	1031.753418
3529.086456	183.990067	-337.142639	1047.533569
3529.089813	178.262421	-327.674438	1062.670898
3529.093086	171.365860	-318.673889	1078.100464
3529.096855	164.527756	-308.329041	1093.004028
3529.100135	156.988297	-298.159546	1106.388062
3529.103406	149.448853	-286.821167	1117.784912
3529.106708	141.792511	-274.489197	1129.123291
3529.109969	133.317947	-262.916992	1141.104614
3529.113291	125.135590	-250.585037	1151.390991
3529.116593	117.187027	-237.259476	1160.917603
3529.119924	107.543541	-223.466400	1169.099854
3529.123644	98.133842	-209.965515	1177.925171
3529.126884	89.367035	-195.587952	1183.009888
3529.130244	79.665108	-180.742844	1188.679077
3529.133626	69.670952	-165.137924	1193.822266
3529.136911	60.027466	-149.766800	1195.926270
3529.140223	50.383987	-133.577438	1198.556396
3529.143542	40.331383	-118.206314	1200.017578
3529.146840	30.687901	-101.490944	1200.718872
3529.150201	19.641729	-84.892456	1200.192871
3529.153477	9.355347	-68.761543	1197.270630
3529.156815	-0.697254	-52.455284	1196.160156
3529.160546	-10.516073	-35.856812	1193.004028
3529.163868	-20.744009	-20.193455	1188.270020
3529.167208	-30.621275	-3.770309	1182.600830
3529.170483	-41.199883	13.061953	1176.288696
3529.173786	-50.551140	30.127995	1169.742798
3529.177101	-60.486847	45.908241	1161.209839
3529.180451	-69.545876	62.039158	1153.085937
3529.183775	-79.715370	77.644073	1144.026855
3529.187062	-88.774399	94.359444	1133.623657
3529.190381	-97.599655	109.847458	1122.811279
3529.193665	-106.308006	124.867912	1111.063721
3529.197375	-115.016365	140.472824	1099.725220
3529.201025	-123.374046	155.727066	1086.925659
3529.204352	-131.556396	170.689072	1073.483276
3529.207729	-139.446533	184.774399	1060.274658
3529.211019	-146.985977	199.035065	1044.026855
3529.214350	-154.642319	213.178848	1028.947876
3529.217683	-161.480423	226.270599	1015.505493
3529.221015	-168.727646	239.420822	998.907104
3529.224351	-174.922867	251.869675	983.477478
3529.227690	-180.825851	263.734070	966.528320
3529.231016	-186.202805	275.481628	950.046753
3529.234350	-191.462891	286.936890	932.396240
3529.237681	-196.956757	297.340149	914.745728
3529.241020	-202.275269	307.626526	897.621277
3529.244350	-206.483337	317.912903	879.912292
3529.247685	-209.931641	327.322632	861.852661
3529.251039	-213.672134	335.972534	844.728210
3529.254347	-217.471069	343.979553	827.720642
3529.257682	-220.919342	351.635864	809.953247
3529.261012	-223.841614	358.473999	792.068970
3529.264349	-226.588562	364.844543	773.600220
3529.267684	-229.043274	370.689087	756.826416
3529.271017	-231.147278	376.416748	739.526550
3529.274349	-233.543549	381.618347	722.811157
3529.277678	-234.887787	385.534180	706.329590
3529.281011	-235.881378	389.157776	689.497314
3529.284349	-237.517822	393.073669	673.658691
3529.287676	-238.277618	396.171265	657.586182
3529.291017	-239.037415	397.983032	641.630615
3529.294366	-240.147888	400.613098	627.077759
3529.297682	-240.323212	402.717163	611.297485
3529.301013	-240.673889	403.944458	596.510803
3529.304339	-240.732330	405.054932	581.607178
3529.307679	-240.615448	405.230286	566.937439
3529.311003	-240.557007	405.814758	552.968994
3529.314398	-240.615448	405.464050	539.643433
3529.317688	-240.206299	405.990051	525.382812
3529.321004	-238.978943	405.405640	512.700134
3529.324341	-238.394531	404.645813	500.426666
3529.327681	-237.576263	403.710693	487.334900
3529.331447	-236.699615	402.132690	473.892487
3529.334771	-235.355347	401.781982	460.800690
3529.338136	-234.420227	399.736389	449.053192
3529.341431	-233.017548	398.333740	436.896545
3529.344769	-231.790192	395.937439	425.090576
3529.348098	-230.562836	394.067200	414.511993
3529.351451	-228.692566	392.313843	403.407379
3529.354775	-226.880783	389.450012	392.594971
3529.358164	-224.835175	387.404419	382.951477
3529.361460	-222.906494	385.475769	372.080688
3529.364766	-222.029800	382.436584	361.618927
3529.368098	-219.808884	380.040344	351.741699
3529.371431	-217.880203	377.118042	342.565765
3529.374765	-215.425491	374.195801	333.039154
3529.378094	-213.672134	371.098206	323.045013
3529.381448	-211.918762	367.942139	314.804199
3529.384783	-209.697845	365.019836	306.271179
3529.388116	-207.944489	361.922241	296.978394
3529.391452	-205.548218	358.824646	288.562225
3529.394791	-203.502625	355.376404	280.321472
3529.398088	-201.573944	352.044983	272.372894
3529.401429	-199.353027	349.531860	264.891876
3529.405194	-197.424316	345.616028	257.527771
3529.408532	-195.554062	342.284607	250.923416
3529.411864	-192.865585	339.771484	244.377548
3529.415288	-191.521332	336.615417	237.714798
3529.418588	-189.709549	333.342529	231.928680
3529.421946	-187.488602	329.777344	226.201050
3529.425215	-185.384583	326.679749	219.713608
3529.428506	-184.332565	323.056091	215.154861
3529.431857	-182.170074	319.958496	209.544113
3529.435208	-179.715363	317.270020	203.465790
3529.438528	-178.078918	314.172424	199.199295
3529.441972	-176.091766	310.548828	194.231430
3529.445304	-174.513748	307.568115	188.971359
3529.448544	-172.701935	304.353577	184.646408
3529.451848	-171.766800	301.665100	180.263000
3529.455181	-169.370560	299.035095	175.645813
3529.458525	-167.324951	295.879028	171.203964
3529.461852	-165.922272	293.307434	167.521912
3529.465248	-164.578033	290.794250	163.430740
3529.468607	-162.649338	288.281128	159.456451
3529.471917	-161.305084	284.832825	156.884857
3529.475178	-159.727066	282.495056	153.027466
3529.478954	-157.564590	279.923462	149.228516
3529.482284	-156.395691	277.118042	146.072464
3529.485691	-155.109879	274.897156	142.448853
3529.488583	-153.122742	272.500854	139.935715
3529.492343	-151.836945	269.812378	136.253647
3529.495620	-150.258926	267.591492	133.915833
3529.498955	-149.265350	264.669189	131.110458
3529.502320	-146.635300	262.682068	127.603737
3529.505674	-145.875519	259.993591	124.681465
3529.509028	-144.180603	258.006409	121.350090
3529.512381	-142.427246	255.610168	118.895386
3529.515702	-141.492111	253.155472	115.973106
3529.518979	-139.738754	251.285217	113.459961
3529.522344	-138.569855	249.531860	110.946815
3529.525704	-137.926941	247.661606	108.725891
3529.529044	-136.524261	245.966690	106.914085
3529.532339	-135.530701	243.161316	104.284042
3529.535670	-133.894211	241.700165	101.946228
3529.538943	-132.783752	239.888382	101.011101
3529.542370	-131.030396	238.076569	98.790184
3529.545734	-130.270615	236.673874	97.621277
3529.549013	-129.627716	234.862061	95.166573
3529.552323	-128.867920	233.634705	92.945648
3529.555648	-127.289894	232.232010	91.776741
3529.559424	-127.114555	230.595566	90.198715
3529.562755	-126.004097	228.900650	88.737579
3529.566043	-125.478081	226.796600	88.270012
3529.569386	-124.367622	226.095261	86.633545
3529.572639	-123.783165	224.575684	85.347748
3529.576012	-122.555824	223.114563	83.945061
3529.579260	-121.854469	222.763885	83.360603
3529.582586	-121.211571	220.952072	82.250145
3529.585885	-121.094688	220.542953	81.431915
3529.589615	-119.633553	219.257156	79.795448
3529.592958	-119.984230	218.029800	79.503212
3529.596273	-119.341316	217.036224	77.925186
3529.599548	-118.639977	215.867325	77.516075
3529.602836	-117.938622	215.458206	76.464058
3529.606116	-117.997078	214.639984	75.353592
3529.609433	-117.237282	213.003510	75.002922
3529.612809	-116.652840	212.886612	74.184685
3529.616149	-116.419060	211.951492	73.892464
3529.619471	-116.243706	211.834610	73.775574
3529.622809	-115.250145	210.957916	73.191116
3529.626106	-115.074806	210.373474	72.139107
3529.629446	-114.607246	209.613678	72.022209
3529.632721	-114.315025	209.496780	71.496201
3529.636088	-113.379906	208.970779	70.385735
3529.639794	-113.029213	208.094086	69.684395
3529.643101	-112.678551	207.509644	69.859734
3529.646402	-112.386330	207.568100	69.158386
3529.649670	-112.503212	207.568100	68.632378
3529.653046	-111.801872	207.451202	67.463470
3529.656347	-111.042091	206.457626	67.580360
3529.659689	-110.925194	206.048508	67.288139
3529.662946	-110.866737	205.931625	66.645233
3529.666300	-110.282295	205.580948	66.469902
3529.670048	-110.340736	205.054932	66.353012
3529.673365	-110.223839	205.522491	66.177673
3529.676681	-109.697838	205.580948	66.236122
3529.679954	-109.990059	205.054932	66.586792
3529.683255	-110.048515	204.879608	65.827003
3529.686528	-109.873177	205.347168	65.534775
3529.689864	-109.054939	205.171829	65.300995
3529.693197	-109.522499	204.938049	65.710114
3529.696518	-109.873177	205.522491	65.885452
3529.699796	-109.756279	206.048508	66.002342
3529.703573	-109.873177	206.340744	66.060783
