time (s)	magX	magY	magZ
7299.386236	-134.478668	318.789612	-371.285797
7299.389550	-134.303345	319.900085	-376.604340
7299.393268	-133.426651	319.958496	-382.741089
7299.396539	-133.485107	321.828796	-389.579193
7299.399832	-133.309769	321.945618	-396.592621
7299.403135	-131.965530	323.056091	-402.670959
7299.406437	-131.381073	323.172974	-408.807709
7299.409710	-130.621277	324.634155	-415.528931
7299.413001	-130.387497	324.575684	-422.659271
7299.416289	-129.043259	325.218567	-429.964935
7299.420012	-128.108124	325.744629	-437.738129
7299.423380	-127.114555	325.218567	-444.693146
7299.426637	-126.588554	325.510803	-451.005219
7299.429987	-125.302742	325.627686	-458.544708
7299.433275	-123.783165	325.218567	-465.967285
7299.436642	-123.140266	324.809448	-473.506683
7299.439906	-121.737572	323.874329	-481.396820
7299.443244	-119.925774	323.348328	-489.871429
7299.446519	-119.165977	322.939209	-496.884827
7299.449820	-118.113976	322.354736	-505.242554
7299.453515	-116.652840	320.835205	-514.360046
7299.456797	-114.724144	318.614258	-521.957947
7299.460124	-113.672112	317.386902	-529.672729
7299.463449	-112.094093	315.399780	-538.614868
7299.466751	-110.106956	313.471069	-548.199890
7299.470004	-108.002922	311.191711	-557.492737
7299.473359	-105.840446	308.210999	-565.850403
7299.476664	-104.437752	305.464050	-574.558777
7299.479965	-102.509056	303.184692	-583.208618
7299.483316	-100.112801	300.087097	-592.735291
7299.487044	-97.658089	296.346619	-601.735840
7299.490649	-95.261841	293.015198	-610.677979
7299.493956	-93.333138	289.274658	-619.444763
7299.497284	-89.884865	285.943298	-627.685608
7299.500614	-86.962593	281.267700	-636.744629
7299.503952	-83.689659	277.059631	-645.336121
7299.507290	-81.234947	272.559326	-653.927551
7299.510617	-77.494446	267.474579	-662.109863
7299.513949	-74.338402	262.798950	-670.701355
7299.517283	-70.539444	257.714172	-678.942139
7299.520615	-66.682053	253.097031	-687.066040
7299.523951	-63.116890	247.018707	-694.488586
7299.527276	-58.850380	242.109299	-702.729431
7299.530613	-55.460548	236.498535	-710.035095
7299.533950	-50.901810	230.829330	-717.632996
7299.537280	-46.576851	224.867905	-724.821777
7299.540615	-42.544121	218.146698	-731.835205
7299.543950	-37.868500	211.893036	-739.023987
7299.547283	-33.660431	205.464066	-745.862122
7299.550660	-28.575686	197.807709	-751.765076
7299.553947	-23.490938	191.086502	-759.538330
7299.557279	-18.873758	184.365280	-764.623047
7299.560613	-14.022795	176.533615	-771.052002
7299.563946	-9.697840	169.461716	-775.669250
7299.567279	-4.554647	161.513138	-781.805969
7299.570652	0.588545	153.272354	-786.949219
7299.573948	5.264172	145.616013	-791.800171
7299.577276	10.173582	136.732330	-796.592651
7299.580615	14.849210	128.842194	-801.034485
7299.583944	19.992401	120.075401	-804.950317
7299.587273	24.609585	111.717705	-809.099976
7299.590610	30.980127	102.834015	-812.957397
7299.593944	35.772648	93.891876	-816.697876
7299.597277	40.623611	85.300407	-819.853882
7299.600603	45.240795	76.007599	-821.724121
7299.604383	50.091759	66.188782	-824.120422
7299.607720	54.767387	56.837521	-825.523071
7299.611041	59.910576	47.135593	-827.510254
7299.614371	64.586205	37.784336	-828.094666
7299.617703	69.378723	29.075979	-829.438965
7299.621035	74.755699	19.140268	-829.088318
7299.624367	78.262421	9.672121	-828.679199
7299.627704	83.697838	0.145529	-829.263611
7299.631072	88.431908	-8.855055	-827.860901
7299.634383	93.107544	-18.089420	-826.341309
7299.637708	98.075394	-27.557568	-825.055603
7299.641037	102.166573	-35.681473	-822.308655
7299.644370	105.907074	-44.798946	-819.853882
7299.647699	110.115135	-52.981300	-817.516113
7299.651029	113.972527	-61.222092	-814.126282
7299.654361	118.531265	-70.047340	-810.677979
7299.657693	122.271774	-77.469902	-806.879028
7299.661032	126.538277	-85.243134	-802.670959
7299.664379	131.097015	-92.607254	-797.352478
7299.667718	134.545303	-99.503799	-792.969055
7299.671035	138.227356	-107.218582	-787.884338
7299.674402	141.792511	-113.939804	-782.390442
7299.677691	144.831680	-120.544128	-776.195251
7299.681449	148.455292	-126.739334	-770.000000
7299.684777	151.728226	-133.226776	-763.921692
7299.688161	155.468735	-139.772644	-756.732910
7299.691462	158.332550	-145.208069	-751.239075
7299.694868	160.962585	-150.585037	-744.108704
7299.698181	164.410873	-156.488022	-736.627686
7299.701446	166.514893	-162.098770	-729.964966
7299.704786	168.852707	-167.125076	-722.776184
7299.708112	170.956741	-173.144943	-715.002930
7299.711469	173.411438	-177.703690	-706.995911
7299.714799	175.281708	-182.320862	-699.514893
7299.718218	177.327286	-187.113388	-690.338989
7299.721543	178.788422	-191.029221	-682.624268
7299.724792	180.366440	-196.055511	-673.740540
7299.728111	181.184677	-199.679138	-665.733521
7299.731470	182.587357	-204.179428	-657.025146
7299.734783	184.165390	-208.270599	-647.849243
7299.738131	185.100525	-211.601974	-639.725342
7299.741521	186.327881	-214.933380	-630.257141
7299.744844	186.678543	-218.732315	-622.308655
7299.748175	186.970779	-221.303925	-611.729980
7299.751449	187.789001	-224.284622	-602.846313
7299.754781	188.607239	-227.031570	-593.845764
7299.758608	188.373459	-229.778488	-584.319153
7299.761506	188.022781	-232.233200	-576.195251
7299.764865	188.724121	-234.454117	-567.077759
7299.768191	188.957901	-236.032150	-558.018738
7299.771874	188.782578	-237.960831	-548.375244
7299.775226	189.133255	-239.772659	-540.543579
7299.778647	187.730560	-240.999985	-531.484558
7299.781939	188.022781	-242.168900	-522.776184
7299.785300	187.555222	-243.688492	-513.658691
7299.788613	187.087662	-244.798965	-505.125641
7299.791870	186.912323	-246.143204	-497.235535
7299.795208	186.795441	-246.435410	-488.877838
7299.798605	186.620087	-247.019882	-481.338379
7299.801953	185.918747	-246.961441	-472.220917
7299.805308	185.509644	-247.896561	-464.973694
7299.808608	185.042068	-247.721237	-457.726501
7299.811929	184.282288	-247.955002	-450.771484
7299.815213	184.048492	-248.013443	-442.647552
7299.818654	183.464050	-247.429001	-435.517212
7299.821993	183.288727	-247.896561	-427.393341
7299.825294	182.470474	-247.429001	-420.847473
7299.828563	181.184677	-247.253647	-413.834015
7299.831880	180.249542	-247.253647	-407.112793
7299.835677	179.723557	-246.902969	-400.450012
7299.838965	179.022202	-247.195206	-393.378113
7299.842264	178.613083	-246.260086	-387.767365
7299.845553	177.736404	-245.792526	-381.104584
7299.848818	176.275269	-244.565170	-375.143188
7299.852088	175.515488	-244.097610	-368.363525
7299.855416	174.755692	-244.272934	-361.700745
7299.858738	172.885437	-242.636459	-355.914642
7299.862435	172.359436	-242.461136	-350.362366
7299.865712	170.956741	-242.285812	-343.933350
7299.868949	169.729385	-240.473984	-339.023956
7299.872265	168.735809	-240.181747	-333.179413
7299.875572	167.216248	-239.305099	-326.691986
7299.878887	165.930435	-238.486832	-321.724152
7299.882226	164.527756	-237.727066	-316.054932
7299.885536	163.475739	-236.967285	-311.087067
7299.889318	162.365265	-236.149033	-306.177673
7299.892607	161.021027	-234.629440	-300.566925
7299.895913	159.559891	-234.220337	-296.183502
7299.899171	158.274109	-233.226761	-290.338989
7299.902462	157.397430	-231.999420	-286.014008
7299.905705	156.228531	-231.064301	-281.455292
7299.909050	154.825821	-230.070709	-276.604340
7299.912332	153.247803	-229.486252	-272.337799
7299.915711	152.546463	-228.258926	-269.532440
7299.919421	151.611328	-226.973114	-264.330811
7299.922761	150.091766	-226.271774	-260.122742
7299.926149	149.390411	-224.869095	-256.382233
7299.929427	148.046158	-224.401520	-253.576859
7299.932709	146.701920	-223.583267	-249.719482
7299.935957	146.175919	-221.829926	-247.089432
7299.939286	145.182343	-221.420822	-242.355347
7299.942543	144.013428	-220.368790	-240.251328
7299.945865	143.428986	-219.024551	-237.504395
7299.949548	142.610748	-218.440079	-234.523682
7299.952831	141.500290	-217.446518	-231.367630
7299.956167	140.272934	-216.803635	-228.270035
7299.959437	139.220917	-215.517838	-226.692017
7299.962693	138.636459	-213.998245	-223.652847
7299.965999	138.344238	-213.472229	-220.905899
7299.969718	137.350677	-211.894211	-218.801880
7299.972972	137.000000	-211.660431	-216.347168
7299.976274	136.357101	-211.017548	-214.067795
7299.979535	134.895966	-209.614853	-211.846878
7299.982888	135.071289	-209.205734	-209.041504
7299.986154	134.077728	-207.919937	-208.164810
7299.989454	132.908829	-206.751022	-206.060791
7299.993176	132.441269	-206.341919	-203.606079
7299.996440	131.330795	-205.465225	-201.969620
7299.999763	130.395676	-204.588531	-199.924026
7300.003031	130.103455	-204.004105	-197.410889
7300.006302	129.635895	-203.244308	-195.189957
7300.009606	128.525421	-202.484512	-193.319702
7300.012871	127.648743	-202.016953	-191.624786
7300.016665	127.181183	-200.848038	-189.696091
7300.019946	126.772064	-200.205139	-188.176514
7300.023247	125.953827	-199.854477	-186.656937
7300.026590	124.726479	-199.386917	-184.903580
7300.029834	124.083580	-198.568680	-183.033325
7300.033218	123.382233	-198.217987	-181.689072
7300.036543	122.797775	-197.984222	-180.637070
7300.039838	122.680885	-197.925766	-179.000595
7300.043115	121.804214	-196.639969	-177.656357
7300.046393	120.927528	-195.821747	-176.136765
7300.050119	120.284630	-195.880173	-175.260086
7300.053435	119.641731	-195.061951	-173.506729
7300.056708	119.232613	-194.945053	-172.805374
7300.060002	119.115723	-194.302155	-171.285812
7300.063280	118.180595	-194.302155	-170.818253
7300.066572	118.005264	-193.834595	-169.766220
7300.069864	117.537697	-193.308594	-169.590897
7300.073604	116.544128	-193.074799	-168.947998
7300.077231	116.836357	-192.899475	-168.597321
7300.080581	116.485680	-193.074799	-167.486862
7300.083891	115.842781	-193.016373	-167.311523
7300.087226	115.959671	-192.198135	-166.727066
7300.090558	115.375221	-192.315018	-166.142624
7300.093891	115.199883	-191.905914	-166.493286
7300.097226	115.316772	-191.613678	-166.142624
7300.100561	115.375221	-192.022812	-165.382828
7300.103887	114.790764	-191.379883	-165.265930
7300.107226	114.323204	-191.789017	-164.798370
7300.110562	114.907654	-192.022812	-164.623032
7300.113889	114.381653	-191.496780	-164.681488
7300.117222	114.206314	-192.139679	-164.330811
7300.120552	114.089424	-191.789017	-165.265930
7300.123923	114.030975	-191.555237	-164.856812
7300.127221	113.329636	-192.256577	-164.681488
7300.130559	113.329636	-191.730576	-164.681488
7300.133885	114.030975	-192.607239	-165.675064
7300.137226	113.855637	-192.607239	-165.207489
7300.140556	113.504967	-192.431900	-165.791946
7300.143890	113.154297	-192.782578	-165.791946
7300.147219	113.388077	-193.308594	-166.434830
7300.150566	112.686729	-193.133270	-166.668625
7300.153896	112.628288	-194.126831	-165.850388
7300.157222	112.569839	-194.711288	-166.551727
7300.160549	112.160728	-194.711288	-167.253082
7300.163884	112.277618	-194.711288	-167.545303
7300.167257	111.810059	-195.061951	-168.363541
7300.170551	111.751610	-195.821747	-168.421982
7300.173884	112.336060	-195.880173	-168.714218
7300.177220	111.751610	-196.756866	-169.415558
7300.180551	111.985390	-196.815308	-170.000000
7300.183880	111.693169	-197.458206	-170.175339
7300.187222	111.868500	-198.217987	-171.168915
7300.190545	111.634720	-198.919342	-172.513153
7300.193882	111.868500	-199.270020	-172.863831
7300.197655	112.043839	-199.971375	-174.091187
7300.200995	111.342491	-200.789597	-175.026306
7300.204325	111.693169	-201.374054	-175.201645
7300.207641	112.043839	-202.426056	-177.013443
7300.210988	111.868500	-203.419647	-178.357697
7300.214304	112.569839	-203.419647	-179.585037
7300.217643	112.336060	-204.179428	-180.637070
7300.220974	111.926949	-205.523666	-182.741089
7300.224305	112.628288	-206.517242	-185.078903
7300.227631	113.095856	-207.101685	-186.832275
7300.230987	112.862068	-207.686142	-188.176514
7300.234320	112.920517	-209.030396	-188.644073
7300.237750	113.680305	-210.199295	-190.455872
7300.241001	114.030975	-211.192871	-192.618362
7300.244306	113.680305	-212.537109	-194.780838
7300.247634	114.615433	-213.004669	-197.235535
7300.250974	115.258331	-214.290482	-198.755127
7300.254326	115.842781	-215.050278	-200.800705
7300.257633	115.842781	-216.569839	-203.956741
7300.260970	116.485680	-217.388092	-205.534790
7300.264324	116.310341	-218.966110	-208.106369
7300.267651	117.245468	-220.018127	-210.035065
7300.271032	117.596138	-220.544128	-213.015793
7300.274726	117.888374	-221.479248	-215.528946
7300.278057	118.180595	-223.057281	-217.925186
7300.281391	118.122154	-223.758636	-220.789032
7300.284773	118.239044	-224.985962	-223.419067
7300.288071	118.355934	-226.622437	-226.633545
7300.291456	119.232613	-227.791367	-226.692017
7300.294791	118.589714	-229.135590	-230.783173
7300.298049	118.998833	-230.187607	-234.173019
7300.301386	119.232613	-231.882523	-236.919922
7300.304719	119.349503	-232.934555	-239.023972
7300.308081	119.291061	-234.512573	-241.420227
7300.311408	119.291061	-235.915268	-245.160721
7300.314817	119.057274	-237.376389	-248.375229
7300.318146	120.226181	-238.837540	-251.531265
7300.321380	120.167740	-239.947983	-255.271774
7300.324721	119.933960	-241.759781	-258.310913
7300.328072	120.284630	-243.279373	-262.752747
7300.331426	120.050850	-244.623611	-266.025726
7300.334738	120.518417	-245.734085	-269.473999
7300.338128	121.278198	-247.487442	-273.448273
7300.341457	121.336647	-249.182358	-278.591461
7300.344731	120.050850	-250.526596	-282.565735
7300.348491	120.752197	-252.163071	-287.007568
7300.351835	121.219757	-253.799545	-291.449432
7300.355231	121.687317	-255.552902	-295.949738
7300.358163	122.037994	-256.780273	-301.502045
7300.361886	121.862656	-258.241394	-306.119202
7300.365188	122.271774	-259.585632	-312.197540
7300.368497	122.797775	-261.046753	-317.866730
7300.371911	122.797775	-262.741638	-322.776123
7300.375294	123.090012	-264.202820	-328.445343
7300.378563	123.031563	-265.547058	-334.699005
7300.381888	122.973122	-267.066650	-340.894196
7300.385213	122.622444	-267.943298	-347.206299
7300.388497	123.323792	-269.988892	-353.167725
7300.391946	123.674461	-270.573364	-359.187622
7300.395219	123.732903	-272.268250	-365.441254
7300.398571	123.206902	-273.203430	-372.396240
7300.401909	123.323792	-274.606079	-379.468140
7300.405212	122.797775	-276.184082	-385.020447
7300.408522	122.213326	-277.177673	-391.975433
7300.411883	121.979546	-278.580383	-398.755096
7300.415255	121.161308	-279.457031	-406.177673
7300.418638	121.219757	-280.801270	-413.132690
7300.421898	120.869087	-282.437744	-419.503235
7300.425203	120.284630	-283.197571	-427.217957
7300.428576	119.407951	-283.606628	-434.874359
7300.432304	119.115723	-284.600220	-441.186432
7300.435589	118.180595	-285.067810	-449.193451
7300.438887	117.070137	-286.295166	-456.382233
7300.442159	116.661018	-286.821167	-464.213898
7300.445509	115.082993	-287.580933	-471.461121
7300.448862	114.498543	-287.931641	-480.227905
7300.452142	113.271187	-288.282288	-487.825836
7300.455450	112.043839	-288.925171	-495.832825
7300.458749	111.108711	-289.100525	-503.138519
7300.462506	109.647575	-288.866760	-512.080627
7300.465791	108.595558	-289.275879	-520.321472
7300.469079	106.725311	-288.866760	-528.737610
7300.472390	104.855057	-288.983643	-536.160156
7300.475653	103.043251	-288.749817	-545.628296
7300.478970	102.400352	-287.931641	-554.102905
7300.482264	100.413208	-286.996460	-563.512573
7300.485611	98.542953	-285.886047	-572.688538
7300.488916	96.789597	-285.301575	-581.630676
7300.492231	94.802452	-284.074219	-590.163635
7300.495930	93.049095	-282.145508	-600.274719
7300.499310	90.711281	-281.151978	-609.801270
7300.502568	88.256577	-279.164795	-619.444763
7300.505886	86.444771	-277.002319	-628.270020
7300.509168	83.522499	-274.547607	-637.913513
7300.512436	80.717125	-272.209839	-646.797241
7300.515769	77.853302	-270.047363	-655.271790
7300.519030	75.047920	-267.241943	-664.973755
7300.522385	72.768555	-264.319702	-673.915833
7300.526093	69.904732	-261.046753	-683.384033
7300.529362	66.865578	-257.306274	-691.858582
7300.532660	63.651077	-254.091782	-700.508484
7300.535919	60.553478	-250.059036	-709.216858
7300.539253	56.520744	-246.026321	-717.282349
7300.542555	53.423141	-241.642899	-724.997070
7300.546251	49.507305	-237.376389	-732.595032
7300.549536	45.825249	-233.051422	-740.894226
7300.552837	41.792519	-228.375793	-748.083008
7300.556113	37.467560	-222.940384	-754.628906
7300.559449	33.084160	-218.849213	-761.525452
7300.562815	29.168322	-213.998245	-768.421997
7300.566097	25.194038	-208.621262	-774.266541
7300.569406	20.343073	-203.010513	-780.052612
7300.572705	16.018116	-196.990631	-785.604919
7300.576468	11.634714	-191.730576	-791.858582
7300.579749	7.017532	-185.126236	-797.001770
7300.582999	2.283459	-179.223251	-801.209839
7300.586309	-2.333723	-172.969604	-806.820557
7300.589594	-6.775572	-166.365280	-810.327332
7300.592904	-11.334307	-159.936295	-814.593811
7300.596243	-16.185274	-152.572189	-817.925232
7300.599501	-21.503798	-145.441849	-821.490356
7300.603235	-26.179430	-138.019287	-824.763306
7300.606512	-31.439512	-130.888962	-828.211609
7300.609791	-36.465805	-123.407959	-829.731201
7300.613094	-41.667442	-115.342484	-831.309204
7300.616376	-46.752190	-107.277031	-833.413208
7300.619707	-51.252480	-98.627121	-834.114563
7300.622963	-56.337227	-90.152542	-835.751038
7300.626329	-61.188194	-81.561081	-836.335449
7300.629624	-66.331383	-72.735825	-836.043274
7300.633391	-71.474579	-63.618355	-836.510864
7300.636670	-75.916420	-54.851547	-835.341919
7300.639968	-80.884277	-46.026299	-834.348389
7300.643254	-85.852135	-35.739914	-833.179443
7300.646511	-90.177086	-26.563999	-831.192322
7300.649762	-95.086494	-18.381649	-829.438965
7300.653134	-99.879021	-8.329048	-826.458252
7300.656822	-104.496193	0.613092	-824.646484
7300.660503	-108.938057	9.672121	-821.256653
7300.663841	-113.555229	20.250731	-817.282288
7300.667175	-117.938622	29.075979	-812.256042
7300.670504	-122.205147	38.135010	-808.690796
7300.673839	-126.880760	47.194038	-804.015259
7300.677168	-130.621277	55.610168	-798.638245
7300.680503	-134.770905	64.844536	-793.728821
7300.683858	-138.745193	72.909996	-788.585632
7300.687167	-142.368790	82.144356	-783.676208
7300.690502	-145.933960	89.625366	-776.955017
7300.693834	-149.791351	98.567505	-769.766235
7300.697170	-153.765640	106.223846	-764.506165
7300.700498	-157.213913	113.704849	-758.135620
7300.703830	-160.019287	121.185860	-751.122192
7300.707165	-163.584457	128.374634	-744.050293
7300.710499	-166.740509	135.329636	-736.803040
7300.713851	-169.662766	142.927521	-729.848022
7300.717161	-172.877258	149.590302	-722.659302
7300.720525	-175.448868	156.311523	-715.295166
7300.723829	-177.494446	162.272934	-707.697266
7300.727187	-180.416718	168.585037	-700.216309
7300.730500	-182.053177	175.072479	-692.033875
7300.733827	-184.917023	180.858566	-684.085388
7300.737159	-186.962601	186.995316	-675.727661
7300.740499	-189.008179	191.904724	-668.188232
7300.743826	-190.469330	197.690826	-659.830505
7300.747160	-191.638229	203.360031	-651.063721
7300.750496	-193.917603	208.503220	-643.115173
7300.753829	-195.144958	213.061951	-634.932800
7300.757157	-196.430756	218.380478	-626.049133
7300.760490	-197.424316	222.939224	-617.574524
7300.763829	-198.067215	227.731720	-609.742859
7300.767161	-199.060791	231.939804	-599.514893
7300.770495	-199.411469	236.206314	-591.507935
7300.773828	-200.112823	240.239044	-581.864441
7300.777162	-201.340149	243.921112	-573.799011
7300.780496	-201.573944	248.070709	-564.623047
7300.783823	-201.749268	251.402115	-556.323792
7300.787162	-201.983063	254.908813	-547.790833
7300.790915	-202.275269	257.889526	-539.783752
7300.794254	-202.099945	260.461121	-531.426086
7300.797575	-202.918198	263.558746	-522.483948
7300.800906	-202.918198	266.013428	-514.184692
7300.804251	-202.392166	267.708374	-505.885406
7300.807638	-201.690842	270.338379	-498.112213
7300.810933	-201.573944	272.734680	-489.462280
7300.814272	-201.515503	274.371124	-481.572174
7300.817585	-200.755707	275.773804	-474.149628
