time (s)	magX	magY	magZ
6577.190934	-123.140266	400.320862	-523.828186
6577.194218	-123.490944	398.450623	-536.393921
6577.197484	-122.906487	396.931030	-548.550598
6577.200821	-122.322044	395.060791	-561.174744
6577.204218	-121.971367	393.307434	-573.273010
6577.207572	-121.036232	390.034485	-586.423157
6577.210892	-121.445351	386.995361	-599.573364
6577.214169	-120.802452	383.780823	-613.366455
6577.217960	-119.516655	379.923462	-626.282898
6577.221248	-119.282875	375.773804	-639.549988
6577.224554	-118.055519	370.922852	-653.343079
6577.227823	-116.769722	365.721191	-666.843994
6577.231124	-115.893044	360.578003	-679.760376
6577.234382	-114.724144	354.675049	-694.663940
6577.237766	-113.146111	348.362915	-708.106445
6577.241022	-111.392754	341.115723	-720.789062
6577.244376	-109.464058	333.926941	-735.283447
6577.248101	-108.002922	326.855042	-748.024536
6577.251447	-105.255989	318.672729	-760.824097
6577.254802	-102.625938	310.139648	-774.208130
6577.258085	-100.697258	301.372864	-787.241394
6577.261366	-97.658089	293.190552	-800.274719
6577.264609	-94.677376	283.663940	-813.366516
6577.267901	-90.995323	274.371124	-825.347778
6577.271186	-87.371712	264.260071	-837.329102
6577.274917	-83.923439	254.850388	-849.485657
6577.278209	-80.416718	243.979538	-860.824097
6577.281456	-76.267090	233.926941	-872.104065
6577.284728	-72.059029	223.231461	-883.091797
6577.288017	-67.909409	211.893036	-893.202881
6577.291325	-63.642899	201.197556	-903.781433
6577.294632	-59.376389	188.748688	-913.191101
6577.298366	-54.876099	177.351837	-923.009949
6577.301672	-50.492691	164.844528	-931.309204
6577.304990	-45.992401	151.811218	-939.900696
6577.308261	-40.907654	139.771484	-947.323242
6577.311565	-36.348915	126.621277	-955.797729
6577.314838	-31.731733	113.587959	-962.577454
6577.318138	-27.172998	100.379311	-969.240295
6577.321453	-22.555815	86.703102	-975.143250
6577.325183	-17.587961	72.676208	-980.403320
6577.328508	-12.795443	58.532436	-986.189331
6577.331764	-7.886034	44.797779	-991.390991
6577.335130	-3.151957	30.186440	-994.664001
6577.338417	1.406778	14.581532	-999.164307
6577.341740	5.556398	0.496201	-1002.495667
6577.345002	9.939800	-14.524258	-1004.541199
6577.348252	14.732319	-29.369373	-1004.950317
6577.352008	19.349503	-43.688488	-1007.229675
6577.355289	23.031559	-58.825829	-1007.814209
6577.358533	28.466978	-73.203392	-1007.054443
6577.361875	32.616596	-87.405617	-1005.067261
6577.365134	36.707771	-102.835182	-1004.015259
6577.368487	40.974281	-116.920517	-1001.443665
6577.371765	45.357685	-131.181183	-997.995361
6577.375459	49.565750	-144.857407	-993.553528
6577.378726	53.773819	-158.124481	-989.170044
6577.382025	58.215660	-170.807129	-983.267090
6577.385338	62.014610	-183.314453	-977.714844
6577.388643	66.105782	-195.997070	-970.759766
6577.391917	70.080070	-207.569244	-964.038574
6577.395199	74.288132	-219.083008	-956.382263
6577.398928	77.502625	-229.252487	-948.375244
6577.402225	81.944473	-239.889542	-939.549988
6577.405506	85.158966	-249.708359	-929.848083
6577.408807	89.133255	-259.293396	-920.438354
6577.412082	93.224434	-267.475769	-910.970215
6577.415371	96.029808	-276.242554	-899.164307
6577.418669	99.419640	-284.775574	-888.585632
6577.422442	102.634132	-292.899475	-877.597900
6577.426168	106.023964	-299.503784	-866.434875
6577.429499	109.180016	-306.166565	-855.271790
6577.432829	111.459381	-312.595581	-843.699646
6577.436165	114.381653	-318.381653	-831.250732
6577.439498	117.128578	-324.284607	-818.568115
6577.442828	120.167740	-329.895386	-806.411438
6577.446163	122.388664	-334.337219	-793.728821
6577.449519	124.258919	-338.895996	-780.929321
6577.452832	126.129166	-343.513184	-767.720642
6577.456163	127.707184	-348.013428	-755.622498
6577.459493	129.226761	-351.403259	-742.121582
6577.462832	130.161880	-355.085327	-729.731201
6577.466165	131.681473	-358.825806	-715.996521
6577.469497	132.499695	-361.923462	-703.489197
6577.472828	133.493271	-364.845703	-689.403870
6577.476162	133.727051	-367.008179	-675.903015
6577.479509	134.779083	-369.521362	-662.752808
6577.482828	135.188187	-371.566895	-648.433655
6577.486159	135.597305	-373.729370	-634.465271
6577.489494	135.597305	-375.073669	-620.847534
6577.492881	135.714203	-376.768555	-607.521973
6577.496162	135.772644	-377.995911	-593.728821
6577.499498	135.714203	-378.463440	-581.046204
6577.502828	135.655762	-379.106384	-568.071289
6577.506159	135.305069	-379.515503	-554.278198
6577.509487	135.597305	-379.807739	-540.543579
6577.512829	135.538864	-379.515503	-527.218018
6577.516159	134.603729	-379.164795	-514.652283
6577.519493	134.428406	-379.340149	-502.554047
6577.522835	133.668610	-378.697266	-490.222076
6577.526153	133.259491	-378.346619	-478.532990
6577.529496	133.493271	-376.827026	-466.551697
6577.532823	133.201050	-375.482727	-456.031586
6577.536159	132.382812	-373.787842	-444.926941
6577.539486	132.149033	-372.735840	-434.231445
6577.542824	131.798355	-370.865540	-423.945068
6577.546155	131.739914	-368.586182	-412.197540
6577.549487	131.155457	-366.540649	-403.021637
6577.552857	130.746353	-364.904175	-392.969025
6577.556159	130.454117	-363.033875	-383.968445
6577.559493	129.518997	-360.988281	-375.084747
6577.562815	129.051422	-358.708923	-366.785492
6577.566163	129.460541	-356.897156	-357.960266
6577.569484	128.291641	-354.617737	-349.719452
6577.572820	128.057861	-352.805969	-341.069550
6577.576158	127.999420	-350.526611	-333.296295
6577.579491	127.122734	-348.247192	-326.341309
6577.583240	126.655174	-345.967834	-318.977203
6577.586579	125.603157	-343.396240	-310.677979
6577.589915	125.252480	-341.526001	-305.008759
6577.593257	124.492699	-339.012878	-296.943298
6577.596621	124.083580	-336.675049	-289.988312
6577.599920	123.206902	-334.337219	-284.143768
6577.603238	122.213326	-331.648743	-277.539459
6577.606573	121.804214	-329.427795	-271.110443
6577.609928	120.927528	-327.031555	-265.090576
6577.613232	119.992401	-324.869080	-258.836914
6577.616574	118.472824	-322.531250	-252.583298
6577.619903	117.420807	-319.959656	-247.440094
6577.623242	117.011688	-317.972534	-241.537125
6577.626584	115.492111	-315.751587	-237.329056
6577.629921	115.199883	-313.004639	-230.900070
6577.633289	113.914085	-311.075989	-225.523087
6577.636569	112.277618	-308.738159	-220.204575
6577.639932	111.868500	-306.049683	-215.002914
6577.643243	110.699593	-303.945618	-210.151962
6577.646564	109.530685	-301.081848	-204.658096
6577.649897	108.770889	-299.094666	-200.625366
6577.653247	107.952660	-297.107544	-196.125076
6577.657001	107.192871	-294.769714	-191.215668
6577.660412	105.907074	-292.198120	-187.241394
6577.663737	105.497955	-289.275879	-182.565765
6577.666995	104.971947	-287.522522	-178.182358
6577.670321	104.329048	-285.710693	-173.623627
6577.673653	102.867920	-283.898865	-169.941559
6577.677004	102.809471	-281.853271	-166.376404
6577.680337	102.283463	-279.164795	-163.220352
6577.683762	101.523674	-277.294556	-159.830505
6577.687092	100.763878	-275.365845	-156.674469
6577.690324	100.822327	-273.320251	-154.278214
6577.693661	99.653419	-271.976074	-151.414383
6577.697016	99.302750	-269.287537	-148.901230
6577.700333	98.893631	-268.060181	-146.388077
6577.703669	98.659843	-266.832886	-143.582703
6577.707063	98.250732	-264.962585	-141.537125
6577.710385	97.432495	-263.150818	-140.309769
6577.713652	97.607834	-261.163635	-138.205734
6577.716990	96.555817	-259.585632	-135.517258
6577.720321	96.380486	-258.299805	-133.705444
6577.723670	95.971359	-257.072449	-130.958511
6577.727036	95.445358	-256.078918	-130.140274
6577.730412	95.270020	-254.851547	-128.153137
6577.733721	94.510231	-253.507309	-126.165977
6577.737415	94.744011	-252.338394	-124.354179
6577.740789	94.276451	-251.111038	-122.776154
6577.744142	93.750435	-249.942154	-121.198135
6577.747481	93.107544	-247.838089	-119.269432
6577.750818	92.347748	-248.013443	-118.217415
6577.754155	92.464638	-246.727646	-116.814728
6577.757427	91.646408	-245.675644	-115.412041
6577.760758	91.178841	-245.149612	-114.009346
6577.764148	90.711281	-243.337814	-112.314430
6577.767491	90.185272	-242.461136	-111.379311
6577.770853	89.600815	-241.584457	-110.268852
6577.774121	88.724136	-240.824661	-108.866158
6577.777443	88.315018	-240.357101	-107.697250
6577.780752	88.373466	-239.305099	-106.528343
6577.784160	87.555229	-238.311508	-104.950325
6577.787519	87.438339	-237.551712	-103.489189
6577.790807	86.503212	-236.382828	-102.787849
6577.794096	86.269432	-236.207489	-101.443604
6577.797419	85.568092	-234.863235	-100.333138
6577.800804	85.451202	-233.986557	-98.813560
6577.804195	85.568092	-233.577454	-98.229103
6577.807496	84.808296	-233.109879	-96.183517
6577.810817	84.632965	-232.583862	-96.943306
6577.814138	84.925186	-231.473404	-95.774399
6577.817891	84.399185	-231.531860	-95.131500
6577.821214	84.516075	-231.005844	-94.254822
6577.824488	84.632965	-230.655167	-94.780830
6577.827880	83.931618	-230.655167	-94.839272
6577.831137	84.340736	-229.720047	-93.261253
6577.834427	84.106956	-229.778488	-94.371712
6577.837748	84.925186	-229.661606	-93.261253
6577.841005	83.814728	-229.778488	-93.611923
6577.844323	83.756279	-229.661606	-93.378143
6577.848019	83.990067	-229.603149	-92.910576
6577.851283	84.574516	-229.252487	-93.261253
6577.854660	84.866745	-229.603149	-93.670364
6577.857931	84.165405	-229.369385	-93.787254
6577.861217	84.282295	-230.070709	-93.787254
6577.864494	84.282295	-229.778488	-94.371712
6577.867762	85.042076	-230.479843	-94.079491
6577.871517	84.399185	-230.830505	-95.482178
6577.874815	84.983635	-231.122742	-94.956161
6577.878116	84.749855	-231.590302	-95.891289
6577.881401	84.632965	-231.298065	-96.534195
6577.884677	84.983635	-232.057861	-97.118645
6577.887979	84.808296	-232.583862	-97.586205
6577.891287	84.516075	-233.285217	-98.696663
6577.894601	85.100525	-233.928116	-99.222679
6577.897956	84.866745	-233.402115	-99.047340
6577.901673	84.808296	-234.687912	-100.333138
6577.905015	84.983635	-235.155472	-100.683807
6577.908358	84.574516	-236.207489	-101.735825
6577.911670	84.808296	-236.791931	-102.203384
6577.914988	84.808296	-237.201050	-102.203384
6577.918233	84.749855	-238.136185	-102.320282
6577.921576	84.866745	-238.895981	-103.196960
6577.924875	84.574516	-238.779068	-103.898308
6577.928223	85.217415	-239.714188	-104.774979
6577.931557	84.808296	-240.298660	-105.125656
6577.934840	85.275864	-241.292221	-106.586792
6577.938563	84.925186	-242.870255	-107.521919
6577.941810	84.282295	-243.571609	-108.866158
6577.945065	84.632965	-244.272934	-109.392174
6577.948429	85.451202	-245.208084	-110.561081
6577.951681	85.392754	-245.850967	-112.255997
6577.954959	85.743423	-247.604324	-113.308006
6577.958263	86.269432	-247.838089	-114.652245
6577.961962	86.210983	-249.182358	-116.054932
6577.965297	86.327873	-250.175919	-116.990059
6577.968564	87.438339	-251.695480	-119.094093
6577.971882	87.905907	-253.390427	-121.139687
6577.975165	88.139687	-254.617752	-123.652832
6577.978468	87.789009	-255.260666	-124.997070
6577.981754	89.133255	-257.540039	-127.276451
6577.985487	89.308594	-258.708923	-130.140274
6577.988772	89.776154	-260.929871	-132.361191
6577.992043	90.594391	-262.215637	-134.523682
6577.995339	90.652832	-263.735229	-137.329056
6577.998629	91.412621	-265.722351	-140.485107
6578.001905	91.646408	-267.592651	-143.115143
6578.005231	92.464638	-269.346008	-146.154297
6578.008925	92.523087	-271.391602	-148.842789
6578.012219	92.990654	-272.911194	-151.472824
6578.015506	93.925781	-274.547607	-154.687317
6578.018785	94.101112	-276.768555	-157.609589
6578.022105	94.334892	-278.521912	-160.824081
6578.025469	95.036240	-281.677979	-164.564590
6578.028756	94.685562	-283.197571	-168.012863
6578.032062	95.270020	-285.301575	-171.344238
6578.035350	95.620689	-286.938049	-174.675629
6578.039115	95.737579	-289.275879	-177.597900
6578.042774	96.263588	-291.789001	-182.624191
6578.046124	96.322037	-293.600830	-185.838699
6578.049440	96.205139	-295.529541	-189.345413
6578.052772	96.789597	-297.867310	-193.378159
6578.056102	97.607834	-300.672729	-196.709534
6578.059436	97.958504	-301.900085	-200.800705
6578.062768	97.783173	-305.056091	-204.307434
6578.066105	97.958504	-307.101685	-208.573944
6578.069434	98.016953	-308.855042	-212.489777
6578.072766	98.250732	-311.601990	-217.223862
6578.076103	99.127411	-314.290466	-221.548813
6578.079435	100.004089	-316.219177	-226.692017
6578.082764	99.419640	-318.849182	-230.958511
6578.086101	100.062538	-320.777893	-237.153717
6578.089471	100.705437	-323.524841	-241.361786
6578.092767	101.348335	-326.037964	-246.329636
6578.096098	101.523674	-328.200439	-252.641724
6578.099431	101.874344	-330.129150	-258.778473
6578.102764	102.575684	-332.876099	-264.856812
6578.106094	102.809471	-335.564575	-271.052002
6578.109433	103.803040	-338.486816	-277.831665
6578.112762	104.270607	-341.467529	-283.910004
6578.116102	105.147285	-343.279358	-291.507874
6578.119436	105.790184	-345.792542	-299.047333
6578.122764	106.023964	-348.481018	-306.236115
6578.126094	106.257744	-350.701904	-315.412018
6578.129434	106.549973	-353.565735	-322.951508
6578.132801	107.485092	-355.962036	-331.250732
6578.136093	107.134422	-358.007629	-339.959076
6578.139440	108.069550	-360.988281	-348.550537
6578.142759	107.660431	-363.559937	-357.609558
6578.146092	108.244888	-365.839294	-367.311523
6578.149428	108.303329	-367.768005	-376.428986
6578.152757	108.478668	-370.456482	-386.773804
6578.156096	108.303329	-372.385132	-396.592621
6578.159425	108.127998	-374.430725	-405.593201
6578.162766	107.952660	-376.417908	-416.230255
6578.166092	108.186440	-378.814148	-426.808899
6578.169427	107.777328	-380.859741	-438.088806
6578.172762	107.309761	-382.788452	-448.492096
6578.176110	106.959091	-383.898926	-458.661621
6578.179480	106.082405	-386.002930	-470.175323
6578.183193	105.497955	-387.405640	-481.455292
6578.186523	105.030388	-388.574524	-492.267670
6578.189850	103.510811	-389.568054	-503.664490
6578.193184	103.218590	-391.204590	-514.418518
6578.196519	102.225014	-391.613647	-525.756897
6578.199863	101.289886	-392.373474	-536.803040
6578.203176	100.179428	-393.074829	-548.901245
6578.206535	99.302750	-393.951477	-560.531921
6578.209859	97.724724	-394.477478	-572.980713
6578.213196	97.374046	-394.009949	-584.669800
6578.216521	96.380486	-394.419006	-597.060242
6578.219860	95.270020	-393.717712	-609.509094
6578.223176	94.334892	-393.191711	-622.893066
6578.226517	93.458214	-392.022766	-635.458801
6578.229851	91.938629	-391.029236	-648.550598
6578.233182	90.302162	-389.918762	-661.116333
6578.236513	90.009933	-388.340759	-674.149658
6578.239859	87.847458	-386.704285	-687.533630
6578.243193	86.094093	-384.483337	-700.333130
6578.246525	84.983635	-380.976624	-715.119812
6578.249884	82.587372	-378.346619	-727.685608
6578.253174	81.009346	-375.015198	-740.017578
6578.256934	79.197548	-371.859131	-753.459961
6578.260264	76.976624	-367.826416	-767.837585
6578.263632	75.047920	-363.267700	-781.163086
6578.266944	72.710114	-358.942749	-794.663940
6578.270325	70.196960	-353.156616	-808.573975
6578.273673	67.800697	-348.597900	-820.789062
6578.276934	64.761543	-342.870239	-834.640564
6578.280260	61.956169	-336.382812	-847.498596
6578.283597	58.507889	-329.486267	-858.895386
6578.286967	55.877846	-322.998840	-871.578003
6578.290275	52.078899	-315.634705	-882.857971
6578.293665	48.104614	-308.036804	-894.430176
6578.297042	44.188778	-299.912903	-904.950317
6578.300271	40.331383	-291.672119	-915.470520
6578.303600	35.889538	-282.729980	-925.113953
6578.306944	31.973698	-274.080078	-934.465210
6578.310277	26.888952	-263.910583	-942.764465
6578.313609	22.330215	-255.026901	-952.232666
6578.317006	18.005259	-244.974289	-959.596741
6578.320330	13.154295	-234.804794	-966.610229
6578.323615	7.952658	-224.985962	-973.156067
6578.326927	3.978374	-214.874924	-978.299255
6578.330278	-1.340153	-203.711868	-983.909973
6578.333607	-6.074228	-192.256577	-988.644104
6578.337419	-10.983637	-180.976624	-993.144409
6578.340377	-15.659266	-170.047333	-996.884888
6578.344083	-20.510229	-158.299820	-1000.742249
6578.347352	-25.185858	-145.967865	-1002.554138
6578.350742	-29.861483	-134.103439	-1003.722961
6578.354093	-34.303329	-121.946823	-1006.528381
6578.357431	-38.920509	-109.556412	-1006.703735
6578.360770	-43.420807	-96.581535	-1006.820557
6578.364073	-47.628868	-82.613091	-1006.762085
6578.367372	-52.070717	-70.105782	-1006.294617
6578.370694	-56.045006	-56.546463	-1004.249023
6578.374109	-60.720634	-43.630039	-1001.794312
6578.377455	-64.636475	-29.953827	-999.807129
6578.380758	-68.435417	-15.517826	-996.826477
6578.384086	-72.701935	-2.016951	-992.969055
6578.387399	-76.442436	11.776154	-988.527222
6578.390712	-79.949158	26.387493	-984.319092
6578.394126	-84.390999	40.706604	-978.240845
6578.397440	-88.131500	54.791935	-972.863831
6578.400769	-92.514900	68.175919	-965.967285
6578.404054	-95.904732	82.085915	-959.947388
6578.407364	-99.645241	96.405022	-951.355957
6578.410741	-103.970192	109.613678	-944.108765
6578.414079	-107.360023	123.406776	-935.166626
6578.417448	-110.749855	136.440094	-925.990662
6578.421167	-114.315025	148.947403	-917.632935
6578.424532	-117.587959	162.272934	-907.171265
6578.427805	-120.685570	174.371124	-897.703186
6578.431108	-124.133842	186.703094	-886.715393
6578.434397	-127.699013	198.216827	-875.961487
6578.437706	-131.205734	208.970779	-865.265930
6578.440979	-133.309769	219.724716	-853.752197
6578.444236	-137.167160	230.303329	-842.647644
6578.447990	-139.446533	241.115738	-830.315552
6578.451247	-142.368790	250.408524	-819.152527
6578.454517	-144.355942	259.116882	-807.112793
6578.457801	-146.810654	267.942139	-795.423767
6578.461059	-149.090012	276.299805	-784.202209
6578.464412	-151.135605	283.897705	-772.104065
6578.468093	-153.064301	291.612488	-760.064331
6578.471407	-155.402115	298.275269	-748.316833
6578.474721	-156.804794	304.996460	-736.393921
6578.478033	-158.499710	311.600830	-724.529541
6578.481351	-159.376389	318.731140	-713.483398
6578.484629	-160.720627	324.166565	-702.203430
6578.487987	-161.655762	329.426636	-691.157227
6578.491289	-162.006439	335.271179	-679.175964
6578.494593	-162.766235	339.713074	-668.012878
6578.497911	-163.233795	345.206909	-655.096497
6578.501240	-163.935135	349.298096	-644.459412
6578.504941	-163.584457	353.272339	-632.828796
6578.508215	-164.052017	356.779053	-621.724182
6578.511528	-163.584457	360.578003	-610.444214
6578.514801	-163.935135	364.376953	-598.112244
6578.518111	-163.058456	367.825256	-586.832275
6578.521413	-163.058456	369.578613	-576.019897
6578.524670	-162.357117	372.500854	-564.739929
6578.528383	-162.006439	374.371094	-553.693787
6578.531700	-160.720627	377.234985	-542.413818
6578.534967	-160.136185	379.280518	-531.601440
6578.538284	-160.194641	380.858582	-520.672119
6578.541521	-158.791946	382.202820	-510.385712
6578.544837	-158.032150	383.488586	-500.157806
6578.548122	-157.798370	384.891296	-488.819427
6578.551853	-156.629471	385.183533	-478.532990
6578.555164	-155.869675	385.534180	-468.714203
6578.558436	-155.402115	385.475769	-458.427826
6578.561718	-154.466980	386.118652	-448.492096
6578.564997	-153.531860	386.177063	-439.491516
6578.568277	-152.772064	385.475769	-428.796021
6578.572026	-151.895386	385.008179	-419.503235
6578.575301	-151.427826	384.774414	-410.210388
6578.578569	-150.258926	383.430176	-400.859131
6578.581884	-149.557571	382.962585	-392.618317
6578.585156	-148.271774	381.676819	-384.377563
6578.588452	-147.395096	380.040344	-376.136780
6578.591731	-146.635300	379.163635	-368.597290
6578.595044	-145.583298	377.059631	-361.525421
6578.598382	-145.115738	375.481628	-353.985962
6578.602112	-143.713043	374.195801	-345.803619
6578.605502	-142.719467	372.091736	-338.381073
6578.608815	-142.076569	370.046204	-331.542969
6578.612128	-141.199890	369.111084	-325.406189
6578.615408	-140.440109	367.474548	-318.977203
6578.618690	-139.446533	365.896545	-312.781982
6578.621942	-138.394516	363.734070	-306.294556
6578.625235	-136.816483	361.513184	-299.807129
6578.628966	-135.998260	360.694885	-294.371704
